55 55 07 EB 07 FD 07 F0 08 01 07 ED 07 FB 07 ED 07 FE 08 18 07 FE 08 25 07 FC 08 51 07 FD 08 82 07 FE 08 61 07 FC 08 04 07 FC 07 BF 07 FF 07 E8 07 FC 08 1E 07 FC 08 43 07 FE 08 4A 07 FD 08 45 07 FC 08 1D 07 FD 07 C6 07 FE 07 7D 07 FB 07 62 07 FE 07 6C 07 FF 07 81 07 FC 07 97 07 FE 07 AC 07 FE 07 C0 07 FC 07 CE 07 FD 07 D8 08 00 07 E3 07 FB 07 E4 07 FE 07 F9 08 00 08 3E 07 FB 08 8B 07 FE 08 A6 07 FE 08 8A 07 FB 08 55 07 FD 08 50 07 FF 08 4B 07 FD 08 3D 07 FC 08 24 07 FE 07 EB 08 00 07 D8 07 FC 07 BE 07 FD 07 B2 07 FE 07 BB 07 FB 07 BE 07 FC 07 B9 07 FE 07 B4 07 FC 07 B8 07 FC 07 C4 07 FE 07 D3 08 02 07 E3 07 FC 07 E3 07 FE 07 E7 07 FC 07 FC 07 FB 08 20 07 FE 08 62 07 FE 08 64 07 FD 08 6D 07 FE 08 7B 07 FF 08 5E 07 FA 08 1F 07 FE 07 F6 07 FF 08 07 07 FC 08 06 07 FD 07 F8 07 FF 07 E5 07 FD 07 C5 07 FD 07 AE 07 FF 07 B0 07 FC 07 A5 07 FC 07 9E 07 FD 07 A4 07 FD 07 B8 07 FB 07 C8 07 FD 07 DA 07 FE 07 E3 07 FB 07 EA 07 FC 07 F7 07 FD 07 FE 07 FE 08 39 07 FB 08 84 07 FC 08 DB 07 FF 08 EA 07 FD 08 B1 07 FD 08 68 07 FD 08 2F 07 FB 08 1D 07 FC 07 CF 07 FC 07 B3 08 02 07 93 07 FB 07 99 07 FD 07 83 07 FE 07 63 07 FC 07 8D 07 FD 07 CC 07 FD 07 ED 07 FD 07 F1 07 FC 07 EE 07 FE 07 F0 08 00 07 F9 07 FB 07 FD 07 FC 08 01 07 FE 07 FD 07 FE 07 DE 07 FC 07 EF 07 FF 08 44 08 00 08 7B 07 FD 08 6D 07 FE 08 6B 07 FE 08 5E 07 FC 08 41 07 FD 08 39 07 FF 08 0D 07 FB 08 0D 07 FC 08 0B 07 FE 07 D2 08 02 07 92 07 FD 07 8C 07 FE 07 B2 07 FC 07 CC 07 FD 07 D0 07 FE 07 CF 08 01 07 D3 07 FB 07 DD 07 FD 07 E9 08 02 07 F1 07 FB 07 F4 07 FD 07 FF 08 05 08 0B 07 FB 07 FF 07 FE 07 F4 08 00 08 2B 07 FB 08 75 07 FD 08 C4 07 FF 08 F2 07 FC 08 94 07 FD 08 1B 07 FF 08 02 07 FB 08 31 07 FE 07 FD 08 00 07 D8 07 FB 07 C2 07 FD 07 A1 07 FE 07 85 07 FE 07 89 07 FB 07 9A 07 FE 07 B1 07 FC 07 C6 07 FC 07 D9 07 FE 07 F1 07 FD 07 FD 07 FC 08 06 07 FD 08 06 07 FE 07 FA 07 FB 07 F1 07 FE 07 E9 07 FF 07 FD 07 FB 08 21 07 FE 08 42 08 00 08 5B 07 FB 08 33 07 FC 08 32 07 FF 08 40 07 FB 08 4C 07 FC 08 67 07 FF 08 2D 07 FE 07 CA 07 FD 07 89 07 FE 07 51 07 FD 07 4E 07 FB 07 65 07 FD 07 86 08 01 07 9C 07 FB 07 A3 07 FE 07 A8 08 03 07 AC 07 FC 07 B4 07 FE 07 B3 08 00 07 D3 07 FB 08 11 07 FD 08 3B 08 00 08 7E 07 FA 08 90 07 FD 08 AB 07 FD 08 98 07 FA 08 52 07 FB 08 34 07 FE 08 12 07 FC 07 DC 07 FC 07 A7 07 FF 07 94 07 FD 07 8A 07 FC 07 97 07 FE 07 CD 08 00 08 00 07 FD 08 08 07 FE 08 03 07 FF 07 FE 07 FB 07 FE 07 FE 07 FF 07 FD 08 01 07 FC 08 05 07 FE 08 09 07 FE 08 0D 07 FB 08 38 07 FD 08 4F 07 FE 08 75 07 FC 08 9E 07 FE 08 C0 07 FF 08 AC 07 FC 08 60 07 FC 07 FB 07 FF 07 E2 08 03 07 F8 07 FC 08 2A 07 FF 08 02 08 02 07 AA 07 FC 07 79 07 FD 07 60 07 FE 07 60 07 FC 07 77 07 FE 07 93 07 FE 07 A4 07 FB 07 B9 07 FD 07 D1 08 03 07 DD 07 FB 07 F0 07 FC 07 F2 08 04 07 F8 07 FA 08 10 07 FC 08 3F 07 FF 08 70 08 01 08 9B 07 FD 08 8C 07 FD 08 6A 07 FD 08 51 07 FB 08 03 07 FF 07 E4 07 FC 07 F6 07 FB 07 F0 07 FE 07 E9 07 FC 07 A1 07 FC 07 78 07 FD 07 91 07 FE 07 C3 07 FB 07 E0 07 FD 07 E6 07 FE 07 E3 07 FB 07 E6 07 FE 07 EB 08 04 07 EA 07 FB 07 F5 07 FC 07 FB 07 FF 08 05 07 FC 08 2A 07 FD 08 00 76 00 65 00 20 00 50 00 61 00 63 00 6B 00 65 00 74 00 28 00 32 00 33 00 29 00 00 00 00 00 52 00 65 00 63 00 65 00 69 00 76 00 65 00 20 00 42 00 75 00 66 00 66 00 65 00 72 00 28 00 32 00 34 00 29 00 00 00 00 00 70 00 65 00 72 00 66 00 63 00 74 00 72 00 73 00 00 00 00 00 00 00 00 00 08 2A 00 00 E8 01 00 00 EA 01 00 00 8E 01 00 00 30 73 CC E1 FD 7F 00 00 48 AC 08 00 07 DB 07 FC 08 31 07 E1 FD 7F 00 00 88 73 CC E1 FD 7F 00 00 A8 73 CC E1 FD 7F 00 00 C0 73 CC E1 FD 7F 00 00 E0 73 CC E1 FD 7F 00 00 F8 73 CC E1 FD 7F 00 00 20 74 CC E1 FD 7F 00 00 73 79 73 74 65 6D 5C 63 75 72 72 65 6E 74 63 6F 6E 74 72 6F 6C 73 65 74 5C 73 65 72 76 69 63 65 73 5C 6E 65 74 62 74 5C 6C 69 6E 6B 61 67 65 00 45 78 70 6F 72 74 00 00 54 00 6F 00 74 00 61 00 6C 00 00 00 00 00 00 00 46 00 72 00 69 00 65 00 6E 00 64 00 6C 00 79 00 4E 00 65 00 74 CB 07 FB 07 D8 07 FD 07 E6 07 FE 07 F9 07 FE 08 0D 07 FD 08 35 07 FF 08 55 07 FB 08 9B 07 FC 08 A9 07 FD 08 00 00 00 00 00 00 00 53 00 59 00 53 00 54 00 45 00 4D 00 5C 00 43 00 75 00 72 00 72 00 65 00 6E 00 74 00 43 00 6F 00 6E 00 74 00 72 00 6F 00 6C 00 53 00 65 00 74 00 5C 00 53 00 65 00 72 00 07 00 69 00 63 00 65 00 73 00 5C 00 54 00 63 00 70 00 49 00 70 00 5C 00 08 6C 07 FE 08 86 66 00 6F 00 72 00 6D 00 61 00 6E 00 63 00 65 00 00 00 47 00 6C 00 6F 00 62 00 61 00 6C 00 5C 00 44 00 48 00 43 00 50 00 43 FE 07 91 07 FF 07 5B 08 01 07 00 48 00 4D 00 45 00 4D 00 00 00 00 00 00 00 00 00 00 00 00 00 00 00 53 00 79 00 73 00 74 00 65 00 6D 00 5C 00 43 00 75 00 72 00 08 63 07 FE 6E 00 74 00 43 00 6F 00 6E 00 74 00 72 00 6F 00 6C 00 53 00 65 00 74 00 5C 00 53 00 65 00 72 00 76 00 69 00 63 00 65 00 73 00 5C 00 07 95 48 00 43 00 50 00 53 00 65 00 72 00 76 00 65 00 72 00 5C 00 50 00 65 E2 07 FE 07 00 6F 00 72 00 6D 00 61 00 6E 00 63 00 65 00 00 00 00 00 00 00 00 00 46 00 69 00 72 00 73 00 74 00 20 00 43 00 6F 00 75 00 6E FD 08 22 07 FE 08 02 08 03 08 00 00 00 00 00 00 00 00 00 00 00 53 00 4F 00 46 00 54 00 57 00 41 00 52 00 45 00 5C 00 4D 00 69 00 63 00 72 00 6F 00 73 00 6F 00 66 00 74 00 5C 00 57 00 69 00 6E 00 64 00 6F 00 77 00 07 00 20 00 4E 00 54 00 5C 00 43 00 75 00 72 00 72 00 65 00 6E 00 74 21 56 00 65 00 72 00 73 00 69 00 6F 00 6E 00 5C 00 50 00 65 00 72 00 66 CB 07 FD 07 BE 07 00 00 00 00 00 00 00 00 00 45 00 76 00 65 00 6E 00 74 00 4C 00 6F 00 07 FE 4C 00 65 00 76 00 65 00 6C 00 00 00 00 00 00 00 43 00 6F 00 73 00 74 FD 07 B0 07 FD 07 F8 07 FC 08 5F 07 FE 08 B9 07 FE 61 00 6C 00 00 00 00 00 46 00 6F 00 72 00 65 00 69 00 67 00 6E 00 00 00 18 00 00 00 01 00 00 00 03 4A 00 EB 1A 9B D4 11 91 23 00 50 04 77 59 BC 00 00 00 00 00 00 00 00 00 00 00 00 72 D8 32 56 00 00 00 00 02 00 00 00 25 00 00 00 60 78 00 00 60 60 00 00 00 00 00 00 72 D8 32 56 00 00 00 00 0D 00 00 00 C8 01 00 00 9C 78 00 00 9C 60 00 00 00 00 00 00 00 00 00 00 00 00 00 00 00 00 00 00 00 00 00 00 00 00 00 00 00 00 00 00 00 00 00 00 07 A8 07 FE 07 00 00 00 A0 00 00 00 00 00 00 00 00 00 00 00 00 00 00 00 00 00 00 FE 07 00 00 00 00 00 00 00 00 00 00 00 00 00 00 00 00 00 00 00 00 00 00 00 00 00 00 00 00 00 00 00 00 00 00 00 00 00 00 00 00 00 00 00 00 00 00 00 00 00 00 00 00 00 00 00 00 00 00 00 00 00 00 00 00 00 00 00 10 90 CC E1 FD 7F 00 00 00 00 00 00 00 00 00 00 00 00 00 00 00 00 00 00 88 72 CC E1 FD B0 00 00 90 72 CC E1 FD 7F 00 00 C0 72 CC E1 FD 7F 00 00 16 00 00 00 00 00 00 00 00 35 00 00 00 00 00 00 00 00 00 00 00 00 00 00 52 53 44 53 6F 6D 73 93 45 63 7F 4B A8 0D 6F 36 A6 0E 3E 71 01 00 00 00 70 65 72 66 63 74 72 73 2E 70 64 62 00 00 00 00 00 00 00 00 00 00 00 00 00 00 00 00 00 00 00 00 00 00 00 00 47 43 54 4C 00 10 00 FF 08 50 00 00 2E 74 65 78 74 24 6D 6E 00 00 00 00 70 60 00 00 12 00 00 00 2E 74 65 78 74 24 6D 6E 24 30 30 00 90 60 00 00 10 03 00 00 2E 74 65 78 74 24 78 00 00 70 00 00 88 02 00 00 2E 69 64 61 74 61 24 35 00 00 00 00 88 72 00 00 10 00 00 00 2E F8 30 63 66 67 00 00 98 72 00 00 08 00 00 00 2E 43 52 54 24 58 43 41 00 F3 07 FF A0 72 00 00 08 00 00 00 2E 43 52 54 24 58 43 5A 00 00 00 00 A8 72 00 00 08 00 00 00 2E 43 52 54 24 58 49 41 00 00 00 00 B0 72 00 FD 07 7D 07 FE 2E 43 52 54 24 58 49 41 41 00 00 00 B8 72 00 00 08 00 00 00 2E 43 52 54 24 58 49 5A 00 00 00 00 C0 72 00 00 58 00 00 00 08 67 66 69 64 73 24 78 00 00 00 00 20 73 00 00 40 05 00 00 2E 72 64 61 08 61 00 00 60 78 00 00 04 02 00 00 2E 72 64 61 74 61 24 7A 7A 7A 64 62 67 00 00 00 68 7A 00 00 BC 02 00 00 2E 78 64 61 74 61 00 00 30 A9 07 FC 07 8A 07 FC 07 8B 07 61 74 61 00 00 DC 7F 00 00 54 01 00 00 2E 69 64 61 74 61 24 32 00 00 00 00 30 81 00 00 14 00 00 00 2E 69 64 61 74 61 24 33 00 00 00 00 48 81 00 00 88 02 00 00 2E 69 64 61 74 61 24 34 00 00 00 00 D0 83 00 00 B4 06 00 00 2E 69 64 61 74 61 24 36 00 00 00 00 00 90 00 00 70 23 00 00 2E 64 61 74 61 00 00 00 80 B3 00 00 80 18 00 FC 2E 62 73 73 00 00 00 00 00 D0 00 00 34 02 00 00 2E 70 64 61 74 61 00 00 00 E0 00 00 0C 01 00 00 2E 72 73 72 63 24 30 31 00 00 00 00 10 E1 00 00 E0 14 00 00 2E 72 73 72 63 24 30 32 00 00 00 00 00 00 00 00 01 06 02 00 06 92 02 30 01 14 08 00 14 64 08 FE 14 54 07 00 14 34 06 00 14 32 10 70 01 1C 0B 00 1C 34 25 00 1C 01 1A 00 10 F0 0E E0 0C D0 0A C0 08 70 07 60 06 50 00 00 01 04 01 00 04 62 00 00 19 27 0A 00 19 01 27 00 0D F0 0B E0 09 D0 07 FE 08 4D 04 60 03 30 02 50 D8 5F 00 00 28 01 00 00 01 0C 04 00 0C 34 0C 00 0C 92 08 70 01 17 07 00 17 74 1A 00 17 34 18 00 17 01 16 00 0B 50 00 00 01 10 05 00 10 C2 09 70 08 60 07 30 06 50 00 00 19 2D 0A 00 1C 01 33 00 0D F0 0B E0 09 D0 07 C0 05 70 04 60 03 30 02 50 D8 5F 00 00 80 01 00 00 01 10 06 00 08 64 0D 00 10 34 0C 00 10 92 0C 70 01 0A 03 00 0A 62 03 30 02 50 00 00 19 1C 04 00 0D 34 12 00 0D F2 06 70 D8 5F 00 00 70 00 00 00 19 2D 08 00 1C 01 B7 00 0D F0 0B E0 09 D0 07 C0 05 70 04 60 03 30 02 50 D8 5F 00 00 A0 05 00 00 01 08 02 00 08 92 04 30 01 06 02 00 06 52 07 FB 08 0F 06 00 0F 34 0E 00 0F 92 0B E0 09 70 08 60 01 1B 0B 00 1B 64 1B 00 1B 54 1A 00 1B 34 19 00 1B 01 14 00 14 F0 12 E0 10 70 00 FF 07 C8 08 01 0E 01 1E 00 02 50 00 00 D8 5F 00 00 E0 00 00 00 01 15 09 00 15 74 05 00 15 64 04 00 15 54 03 00 15 34 02 00 15 E0 00 00 01 19 0A 00 08 75 07 FF 08 64 08 00 19 54 07 00 19 34 06 00 19 32 15 E0 01 1D 0C 00 1D C4 0B 00 1D 74 0A 00 1D 64 09 00 1D 34 08 00 1D 32 19 F0 17 E0 15 D0 01 04 01 00 04 42 00 00 07 DE 07 FB 07 E5 28 00 15 F0 13 E0 11 70 10 60 0F 30 00 00 B4 5F 00 00 09 00 00 00 E8 58 00 00 1A 59 00 00 96 60 00 00 1A 59 00 00 3A 59 00 00 08 59 00 00 EA 60 00 00 54 59 00 00 74 59 00 00 8E 59 00 00 3E 61 00 00 07 FC 07 FD B6 59 00 00 C5 59 00 00 92 61 00 00 C5 59 00 00 DD 59 00 00 EC 59 00 00 EF 61 00 00 EC 59 00 00 10 5A 00 00 26 5A 00 00 43 62 00 00 26 5A 00 00 47 5A 00 00 61 5A 00 00 97 62 00 00 61 5A 00 00 8E 5A 07 FF 08 78 00 00 EB 62 00 00 AF 5A 00 00 B0 58 00 00 BF 5A 00 00 48 63 00 00 00 00 00 00 01 06 02 00 06 32 02 50 01 0F 06 00 0F 64 07 00 0F 34 06 00 0F 32 0B 70 01 00 00 00 01 04 01 00 04 E2 00 00 01 06 02 00 06 32 02 30 01 0C 02 00 0C 01 11 00 09 0A 04 00 0A 34 06 00 0A 32 06 70 B4 5F 00 00 01 72 07 FD 08 A4 00 00 70 5E 00 00 80 63 00 00 70 5E 00 00 01 0D 04 00 0D 34 09 00 0D 88 06 50 00 00 00 00 01 00 00 00 00 00 00 00 00 00 00 00 00 00 00 00 00 DD 00 00 6F CA 32 56 00 00 00 00 0C 7E 00 00 01 00 00 00 12 00 00 00 12 00 00 00 58 7D 00 00 A0 7D 00 00 E8 7D 00 00 10 10 00 00 F0 19 00 00 70 22 00 00 B0 32 00 00 A0 34 00 00 00 4B 00 00 20 10 00 FE 08 28 07 00 80 22 00 00 30 10 00 00 30 1A 00 00 90 22 00 00 90 10 00 00 50 1A 00 00 A0 22 00 00 60 4C 00 00 A0 4E 00 00 20 51 00 FB 19 7E 00 00 32 7E 00 00 4A 7E 00 00 63 7E 00 00 7B 7E 00 00 93 7E 00 00 AD 7E 00 00 C8 7E 00 00 E2 7E 00 00 FD 7E 00 00 17 7F 00 00 31 7F 00 00 4D 7F 00 00 65 7F 00 00 7C 7F 00 00 94 7F 00 00 AB 11 07 00 C2 7F 00 00 11 00 08 00 0E 00 02 00 0B 00 05 00 10 00 07 00 0D 00 01 00 0A 00 04 00 0F 00 06 00 0C 00 00 00 09 00 03 00 70 65 72 66 63 74 72 73 2E 64 6C 6C 00 43 07 FE 08 09 44 68 63 70 50 65 72 66 6F 72 6D 61 6E 63 65 44 61 74 61 00 43 6C 6F 73 65 49 50 58 50 65 72 66 6F 72 6D 61 6E 63 65 44 61 74 61 00 43 6C 6F 73 65 4E 57 4E 42 50 65 72 66 6F 72 6D 61 6E 63 65 44 61 74 61 00 43 6C 6F 73 65 4E 62 66 50 65 72 66 6F 72 6D 61 6E 63 65 44 61 74 61 00 43 6C 6F 73 65 53 50 58 50 65 72 66 6F 72 6D 61 6E 63 65 44 61 74 61 00 43 6C 6F 73 65 54 63 70 49 70 50 65 72 66 6F 72 6D 61 6E 63 65 44 61 74 61 00 43 6F 6C 6C 65 63 74 44 68 63 70 50 65 72 66 6F 72 6D 61 6E 63 65 44 61 74 61 00 43 6F 6C 6C 65 63 74 49 50 58 50 65 72 66 6F 72 6D 61 6E 63 65 44 61 74 61 00 07 FE 07 6C 65 63 74 4E 57 4E 42 50 65 72 66 6F 72 6D 61 6E 63 65 44 61 74 61 00 43 6F 6C 6C 65 63 74 4E 62 66 50 65 72 66 6F 72 7E 07 FB 08 65 44 61 74 61 00 43 6F 6C 6C 65 63 74 53 50 58 50 65 72 66 6F 72 6D 61 6E 63 65 44 61 74 61 00 43 6F 6C 6C 65 63 74 54 63 70 49 70 50 65 72 66 6F 72 6D 61 6E 63 65 44 61 74 61 00 F7 07 FB 08 44 68 63 70 50 65 72 66 6F 72 6D 61 6E 63 65 44 61 74 61 00 4F 70 65 6E 49 50 58 50 65 72 66 6F 72 6D 61 6E 63 65 44 61 74 61 00 07 70 65 6E 4E 57 4E 42 50 65 72 66 6F 72 6D 61 6E 63 65 44 61 74 61 00 07 D5 07 6E 4E 62 66 50 65 72 66 6F 72 6D 61 6E 63 65 44 61 74 61 00 4F 70 05 07 FB 08 35 50 65 72 66 6F 72 6D 61 6E 63 65 44 61 74 61 00 4F 70 65 6E 54 63 70 49 70 50 65 72 66 6F 72 6D 61 6E 63 65 44 61 74 61 00 00 08 83 00 00 00 00 00 00 00 00 00 00 40 84 00 00 C0 71 00 00 C8 C8 00 00 00 00 00 00 00 00 00 00 C6 86 00 00 00 00 55 55 07 EB 07 FD 07 F0 08 01 07 ED 07 FB 07 ED 07 FE 08 18 07 FE 08 25 07 FC 08 51 07 FD 08 82 07 FE 08 61 07 FC 08 04 07 FC 08 52 07 FD 08 E8 07 FC 08 1E 07 FC 08 43 07 FE 08 4A 07 FD 08 45 07 FC 08 1D 07 FD 07 C6 07 FE 07 7D 07 FB 07 62 07 FE 07 6C 07 FF 07 81 07 FC 07 97 07 FE 07 AC 07 FE 07 C0 07 FC 07 CE 07 FD 07 D8 08 00 07 E3 07 FB 07 E4 07 FE 07 F9 08 00 08 3E 07 FB 08 8B 07 FE 08 A6 07 FC 08 8A 07 FB 08 55 07 FD 08 50 07 FF 08 4B 07 FD 08 3D 07 FC 08 24 07 FE 07 EB 08 00 07 D8 07 FC 07 BE 07 FD 07 B2 07 FE 07 BB 07 FB 07 BE 07 FC 07 B9 07 FE 07 B4 07 FC 07 B8 07 FC 07 C4 07 FE 07 D3 08 02 07 E3 07 FC 07 E3 07 FE 07 E7 07 FC 07 FA 07 FE 07 F9 08 FE 08 62 07 FE 08 64 07 FD 08 6D 07 FE 08 7B 07 FF 08 5E 07 FA 08 1F 07 FE 07 F6 07 FF 08 07 07 FC 08 06 07 FD 07 F8 07 FF 07 E5 07 FD 07 C5 07 FD 07 AE 07 FF 07 B0 07 FC 07 A5 07 FC 07 9E 07 FC 07 92 07 FD 07 B8 07 FB 07 C8 07 FD 07 DA 07 FE 07 E3 07 FB 07 EA 07 FC 07 F7 07 FD 07 FE 07 FE 08 39 07 FB 08 84 07 FC 08 DB 07 FF 08 EA 07 FE 08 44 07 FD 08 68 07 FD 08 2F 07 FB 08 1D 07 FC 07 CF 07 FC 07 B3 08 02 07 93 07 FB 07 99 07 FD 07 83 07 FE 07 63 07 FC 07 8D 07 FD 07 8D 07 FE 07 AD 07 FA 07 C6 07 FD 07 EE 07 FE 07 F0 08 00 07 F9 07 FB 07 FD 07 FC 08 01 07 FE 07 FD 07 FE 07 DE 07 FC 07 EF 07 FF 08 44 08 00 08 7B 07 FD 08 6D 07 FE 08 6B 07 FE 08 5E 07 FC 08 41 07 FD 08 39 07 FF 08 0D 07 FB 08 0D 07 FC 08 0B 07 FE 07 D2 08 02 07 92 07 FD 07 8C 07 FE 07 B2 07 FC 07 CC 07 FD 07 D0 07 FE 07 CF 08 01 07 D3 07 00 07 E4 07 FC 07 E9 08 02 07 F1 07 FB 07 F4 07 FD 07 FF 08 05 08 0B 07 FB 07 FF 07 FE 07 F4 08 00 08 2B 07 FB 08 75 07 FD 08 C4 07 FF 08 F2 07 FC 08 94 07 FD 08 1B 07 FF 08 02 07 FB 08 31 07 FE 07 FD 08 00 07 D8 07 FB 07 C2 07 FD 07 A1 07 FE 07 85 07 FE 07 89 07 FB 07 9A 07 FE 07 B1 07 FC 07 C6 07 FC 07 D9 07 FE 07 F1 07 FD 07 FD 07 FC 08 06 07 FD 08 06 07 FE 07 FA 07 FB 07 09 07 FE 07 E9 07 FF 07 FD 07 FB 08 21 07 FE 08 42 08 00 08 5B 07 FB 08 33 07 FC 08 32 07 FF 08 40 07 FB 08 4C 07 FC 08 67 07 FF 08 2D 07 FE 07 CA 07 FD 07 89 07 FE 07 51 07 FD 07 4E 07 FB 07 65 07 FD 07 86 08 01 07 9C 07 FB 07 A3 07 FE 07 A8 08 03 07 AC 07 FC 07 E0 07 FD 07 CE 08 00 07 D3 07 FB 08 11 07 FD 08 3B 08 00 08 7E 07 FA 08 90 07 FD 08 AF 07 FE 08 98 07 FA 08 52 07 FB 08 34 07 FE 08 12 07 FC 07 DC 07 FC 07 A7 07 FF 07 94 07 FD 07 8A 07 FC 07 97 07 FE 07 CD 08 00 07 00 07 FD 08 08 07 FE 08 03 07 FF 07 FE 07 FB 07 FE 07 FE 07 FF 07 FF 08 01 07 FC 08 05 07 FE 08 09 07 FE 08 0D 07 FB 08 38 07 FD 08 4F 07 FE 08 75 07 FC 08 9E 07 FE 08 C0 07 FF 08 AC 07 FC 08 60 07 FC 07 FB 07 FF 07 E2 08 03 07 F8 07 FC 08 2A 07 FF 08 02 08 02 07 AA 07 FC 07 79 07 FD 07 60 07 FE 07 60 07 FC 07 77 07 FD 07 EA 07 FE 07 A4 07 FB 07 B9 07 FD 07 D1 08 03 07 DD 07 FB 07 F0 07 FC 07 F2 08 04 07 F8 07 FA 08 10 07 FC 08 3F 07 FF 08 70 08 FE 08 9B 07 FD 08 8C 07 FD 08 6A 07 FD 08 51 07 FB 08 03 07 FF 07 E4 07 FC 07 F6 07 FB 07 F0 07 FE 07 E9 07 FC 07 A1 07 FC 07 78 07 FD 07 91 07 FE 07 C3 07 FB 07 E0 07 FD 07 E6 07 FE 07 E3 07 FB 07 E6 07 FE 07 EB 08 04 07 EA 07 FB 07 F5 07 FC 07 FB 07 FF 08 05 07 FC 08 2A 07 FD 08 57 07 FE 08 88 07 FD 08 50 07 FC 08 61 07 FE 08 87 08 00 08 40 07 FB 08 23 07 FD 08 2A 07 FC 07 F5 07 FE 08 D4 07 FE 07 9F 08 04 07 8A 07 FB 07 A0 07 FD 07 C5 07 FF 07 D1 07 FC 07 6F 07 FE 07 E0 07 FE 07 E1 07 FE 07 ED 07 FD 07 F6 07 FE 07 F9 08 00 08 01 07 FB 08 0A 07 FD 08 02 07 FF 08 2A 07 FE 08 8B 07 FC 08 07 07 FE 08 EC 07 FC 08 53 07 FC 07 D9 07 FE 07 AC 08 00 07 DB 07 FC 08 31 07 FE 08 45 07 FF 08 19 07 FD 07 C6 07 FE 07 83 07 FC 07 EF 07 FE 07 70 07 FE 07 8E 07 FE 07 A8 07 FC 07 B1 07 FD 07 B3 08 00 07 C4 07 FA 07 D0 07 FD 07 D7 08 01 07 DC 07 FA 07 D9 07 FD 07 E3 07 FE 07 FF 07 FC 08 41 07 FC 08 3E 07 FE 08 B9 07 FC 08 97 07 FC 08 7B 07 FE 08 29 08 00 07 FD 07 FC 08 20 07 FE 08 1F 08 05 07 FD 07 FB 07 E2 07 FE 07 B7 07 FF 07 99 07 FC 07 98 07 FD 07 8E 07 FF 07 88 08 04 07 8F 07 FB 07 A3 07 FE 07 B9 08 03 07 CB 07 FB 07 D8 07 FD 07 E6 07 FE 07 F9 07 FE 08 0D 07 FD 08 35 07 FF 08 55 07 FB 08 9B 07 FC 08 A9 07 FD 08 66 07 FD 08 24 07 FB 08 3F 07 FC 08 60 07 FF 08 44 07 FA 08 41 07 FD 08 2E 07 FD 07 DB 07 FA 07 8E 07 FC 07 72 07 FF 07 93 07 FC 07 A9 07 FD 07 AE 07 FF 07 B3 07 FE 07 BF 07 FD 07 B8 07 FA 07 BF 07 FD 07 C7 07 FD 07 DB 07 FE 07 CE 08 01 07 E4 07 FC 08 24 07 FE 08 6C 07 FE 08 86 07 FC 08 9B 07 FD 08 87 08 01 08 37 07 FC 08 1B 07 FD 08 DE 07 FF 08 28 07 FB 07 DA 07 FD 07 EE 07 FF 08 38 07 FF 08 10 07 FE 07 91 07 FF 07 5B 08 01 07 75 07 FD 07 A0 07 FC 08 04 07 FB 07 C3 07 FD 07 CE 07 FE 07 D6 07 FD 07 E3 07 FC 07 F1 07 FE 07 F5 08 04 08 01 07 FB 08 3C 07 FD 08 63 07 FE 08 58 07 FA 08 4E 07 FC 08 42 07 FF 08 2E 07 FB 08 63 07 FD 08 79 08 00 08 5B 07 FB 08 0B 07 FE 08 11 07 FF 07 94 07 FA 07 9C 07 FC 07 95 08 04 07 A1 07 FB 07 B9 07 FD 07 C9 07 FF 07 D3 08 02 07 DD 07 FC 07 E2 07 FE 07 EA 07 FC 07 F1 07 FC 07 F6 07 FE 07 F7 08 00 07 D6 07 FD 07 E7 07 FE 08 34 07 FD 08 7E 07 FC 08 78 07 FE 08 82 07 FF 08 63 07 FD 08 22 07 FE 08 02 07 FB 08 3A 07 FC 08 4B 07 FD 08 18 07 FE 07 B4 07 FC 07 4C 07 FD 07 3D 07 FF 07 88 07 FC 07 D4 07 FC 07 F1 07 FD 07 F0 07 FE 07 F1 07 FC 07 E3 07 FE 07 E6 07 FD 08 0B 07 FB 08 1D 07 FC 08 2F 07 FE 08 35 07 FF 08 43 07 FC 08 42 07 FC 08 A1 07 FE 08 50 07 FB 08 21 07 FE 08 2E 08 03 08 32 07 FB 08 2E 07 FC 08 20 08 04 08 09 07 FA 07 CB 07 FD 07 BE 07 FF 07 D3 07 FF 07 E6 07 FC 07 CF 07 FD 07 B3 07 FD 07 B4 07 FB 07 B9 07 FE 07 C2 07 FE 07 63 07 FB 07 CB 07 FD 07 CE 07 FF 07 C8 07 FC 07 B3 07 FD 07 B0 07 FD 07 F8 07 FC 08 5F 07 FE 08 B9 07 FE 08 A4 07 FB 08 52 07 FD 08 07 07 FD 08 21 07 FE 08 1F 07 FC 07 FC 07 FE 07 F5 07 FF 07 F0 07 FF 07 DF 07 FF 07 CE 08 02 07 A6 07 FD 07 8C 07 FE 07 9C 07 FB 07 B4 07 FC 07 FE 07 FB 08 DA 07 FC 07 E2 07 FC 07 E7 07 FE 07 F3 07 FD 07 F6 07 FC 07 EC 07 FD 08 E8 08 02 08 30 07 FC 08 8F 07 FE 08 A7 07 FD 08 93 07 FC 08 A9 07 FD 08 7E 07 FC 08 17 07 FC 07 CF 07 FD 07 D7 07 FE 07 F2 07 FB 07 F4 07 FE 07 D7 07 FD 07 A8 07 FC 07 91 07 FE 07 A8 07 FE 07 BD 07 FC 07 CD 07 FE 07 CE 07 FE 07 D8 07 FB 07 DF 07 FD 07 EB 07 FE 07 F2 07 FC 07 E8 07 FD 07 D7 07 FE 07 E4 07 FF 08 45 07 FB 08 97 07 FE 08 B1 07 FE 08 8E 07 FB 08 44 07 FE 07 F1 07 FD 08 18 07 FC 08 6B 07 FB 07 74 07 FF 08 73 07 FB 08 67 07 FD 08 21 07 FE 07 BE 07 FB 07 6A 07 FD 07 85 07 FC 07 35 07 FC 07 52 07 FD 07 73 07 FF 07 8B 07 FB 07 A0 07 FC 07 B0 07 FE 07 BB 07 FE 07 D1 07 FD 07 E3 07 FD 07 ED 07 FE 08 32 07 FB 08 02 07 FE 08 88 07 FB 08 69 07 FC 08 5A 07 FE 08 6C 08 01 08 52 07 FC 08 13 07 FE 07 FC 07 FD 08 45 07 FC 08 43 07 FE 07 FD 07 FF 07 A2 07 FD 07 71 08 00 07 71 07 FC 07 8D 07 FE 07 AB 07 FE 07 C1 08 01 07 D2 07 FC 07 E3 08 00 07 F3 07 FE 07 F4 07 FD 07 FC 07 FE 08 07 07 FE 08 0B 07 FC 08 0A 07 FE 08 3C 07 FD 08 8D 07 FD 08 75 07 FE 08 05 08 01 07 ED 07 FB 08 27 07 FE 08 4D 07 FF 08 26 07 FB 08 41 07 FC 08 22 07 FE 07 B2 07 FB 07 83 07 FC 07 97 07 FD 07 CD 07 FB 07 F8 07 FB 07 FF 07 FD 07 F9 07 FC 07 F8 07 FB 07 F1 07 FE 07 E2 07 FD 07 E0 07 FB 07 E5 07 FC 07 ED 07 FD 07 F3 07 FF 08 15 07 FB 08 4F 07 FD 08 9D 08 02 08 AD 07 FC 08 8C 07 FD 08 4C 07 FE 07 FE 07 FC 07 EA 07 FE 07 E7 08 02 08 00 07 FB 08 09 07 FD 07 7D 07 FE 06 C3 07 FD 06 C7 07 FC 06 F7 07 FF 07 3A 07 FF 07 64 07 FB 07 80 07 FE 07 93 07 FB 07 B2 07 FF 07 D4 07 FC 07 F4 07 FF 08 0A 07 FE 08 11 07 FB 08 16 07 FD 08 31 07 FC 08 53 07 FC 08 8D 07 FC 08 BA 07 FF 08 EA 07 FE 08 B8 07 FC 08 65 07 FD 08 14 07 FD 08 15 07 FB 08 32 07 FD 08 3C 07 FD 08 2B 07 FA 08 00 07 FD 07 CE 07 FE 07 A9 07 FC 07 8A 07 FC 07 8B 07 FD 07 B0 08 03 07 C7 07 FC 07 BE 07 FF 07 CE 07 FD 07 DC 07 FC 07 E6 07 FE 07 E2 07 FD 07 E7 07 FC 08 02 07 FC 08 5A 07 FC 08 A9 07 FB 08 E5 07 FD 08 7D 07 FE 08 69 07 FB 08 14 07 FC 08 11 07 FF 08 17 07 FD 08 1E 07 FD 08 0C 08 00 07 DC 07 FC 07 FF 07 FE 07 98 07 FF 07 B2 07 FE 07 D0 07 FC 07 DE 07 FE 07 E2 07 FF 07 E5 07 FC 07 E3 07 FE 07 E9 07 FE 07 F7 08 01 07 F9 07 FC 07 E9 07 FE 07 DB 07 FD 08 20 07 FB 08 98 07 FE 08 D5 07 FD 08 C6 07 FB 08 7C 07 FD 08 3D 08 02 08 10 07 FA 08 4C 07 FD 08 44 07 FF 07 F0 07 FE 07 AF 07 FC 07 7F 07 FD 07 66 07 FE 07 4A 07 FC 07 64 07 FE 07 99 08 03 07 BC 07 FB 07 C6 07 FC 07 C9 08 00 07 D1 07 FB 07 E1 07 FC 07 E6 07 FE 07 EB 07 FA 07 F3 07 FC 08 1F 07 FE 08 30 07 FB 08 3B 07 FD 08 5A 07 FE 08 7E 07 FD 08 6B 07 FD 08 38 07 FE 08 4D 08 02 08 1F 07 FC 07 D9 07 FD 07 C2 08 03 07 EE 07 FC 07 E7 07 FD 07 85 07 FF 07 57 07 FA 07 83 07 FD 07 BA 07 FE 07 FC 07 FD 07 D5 07 FC 07 DC 07 FF 07 E3 07 FD 07 EC 07 FB 07 F5 07 FD 07 29 07 FE 07 FC 07 FA 07 EC 07 FC 08 1A 07 FE 08 41 08 00 08 67 07 FC 08 84 07 FE 08 77 08 02 08 48 07 FD 08 20 07 FD 08 38 07 FD 08 3E 07 FC 07 FB 07 FE 07 B3 07 FE 07 B7 07 FB 07 B9 07 FD 07 9D 07 FF 07 45 07 FA 07 28 07 FC 07 20 07 FD 07 28 07 FB 07 40 07 FC 07 58 07 FD 07 DF 07 FF 07 EA 07 FC 07 F6 07 FD 08 03 07 FF 08 17 07 FB 08 54 07 FC 08 53 07 FD 08 75 07 FB 08 88 07 FB 08 61 07 FD 08 E1 07 FD 08 31 07 FC 07 E5 07 FE 07 D5 07 FD 08 35 07 FD 08 70 07 FD 08 21 07 FE 07 A7 07 FC 07 92 07 FD 07 B6 07 FF 07 C8 08 01 07 CA 07 FD 07 CE 07 FF 07 D4 07 FE 07 DF 07 FC 07 E6 07 FE 07 E9 07 FD 07 F2 07 FC 07 EA 07 FE 07 F9 07 FF 08 32 07 FC 08 6A 07 FE 08 75 07 FF 08 2D 07 FC 07 EB 07 FC 07 FA 07 FD 08 20 07 FD 08 3C 07 FD 08 28 07 FD 08 5D 07 FD 08 20 07 FC 07 F3 07 FB 07 D4 07 FD 07 CF 07 FB 07 9D 07 FE 07 C9 08 01 07 DE 07 FB 07 E5 07 FE 07 EA 07 FF 07 EE 07 FB 07 F1 07 FC 07 EF 08 01 07 EA 07 FA 07 F2 07 FC 07 FB 07 FD 08 3C 07 FE 08 56 07 FC 08 4D 07 FD 08 40 07 FE 08 89 07 FC 08 5C 07 FE 08 5B 07 FD 08 0C 07 FB 08 0C 07 FD 07 FC 07 FD 07 9D 07 FC 07 78 07 FB 07 9C 07 FF 07 B7 07 FC 07 B3 07 FD 07 6D 07 FE 07 C1 08 03 07 DA 07 FB 07 EE 07 FC 07 FB 07 FE 07 F8 07 FE 07 F3 07 FD 07 FA 07 FE 07 FB 08 00 08 10 07 FB 08 15 07 FD 08 32 07 FF 08 78 07 FF 08 9E 07 FD 08 80 07 FE 08 32 07 FC 08 16 07 FC 07 F2 07 FE 08 14 07 FE 08 09 07 FC 07 B1 07 FE 07 67 08 00 07 36 07 FC 07 18 07 FD 07 33 07 FE 07 60 07 FB 07 EE 07 FD 07 83 07 FE 07 8E 07 FB 07 9B 07 FC 07 B5 07 FD 07 D6 07 FC 07 F4 07 FB 07 F2 07 FD 07 F8 08 02 08 3D 07 FB 08 72 07 FD 08 A4 07 FE 08 E6 07 FA 08 FF 07 FD 08 CA 07 FF 08 81 07 FB 08 76 07 FD 08 88 07 FE 08 51 07 FC 07 EB 07 FD 07 A2 07 FF 07 90 07 FC 07 BB 07 FD 07 DD 07 FE 07 D7 08 02 07 82 07 FC 07 95 07 FE 07 9A 07 FD 07 FA 07 FC 07 FF 07 FE 07 FF 07 FF 08 06 07 FC 07 F7 07 FE 08 AD 08 00 07 16 07 FB 08 53 07 FD 08 74 07 FE 08 06 07 FB 07 F0 07 FB 07 ED 07 FE 08 28 07 FB 08 4A 07 FC 08 16 07 FD 08 06 07 FE 08 01 07 FB 07 D6 07 FC 07 DF 07 FF 07 C3 07 FA 07 80 07 FC 07 82 07 FE 07 94 07 FB 07 B0 07 FD 07 C2 07 FE 07 CB 07 FD 07 03 07 FC 07 C1 07 FD 07 C2 08 01 07 C6 07 FB 07 E8 07 FD 08 40 07 FE 08 79 07 FC 08 8F 07 FD 08 BA 07 FF 08 D8 07 FC 08 77 07 FC 08 15 07 FD 07 FB 07 FD 08 11 07 FC 08 32 07 FE 08 22 07 FF 07 DD 07 FD 07 CF 07 FE 07 3B 07 FE 07 61 07 FB 07 9B 07 FD 07 C3 07 FE 07 D1 07 FD 07 DA 07 FD 07 E5 07 FF 07 EC 07 FC 07 FB 07 FD 08 03 07 FE 08 09 07 FC 07 F9 07 FC 08 3D 07 FD 08 90 07 FC 08 A7 07 FC 08 8A 07 FE 08 58 07 FC 08 3D 07 FC 08 32 07 FD 08 0A 07 FE 07 CB 07 FC 07 F7 07 FD 08 09 07 FD 07 B8 07 FC 07 90 07 FE 07 9A 07 FD 07 A9 07 FB 07 C0 07 FC 07 D4 07 FF 07 E4 07 FB 07 E9 07 FD 07 F0 07 FF 07 F9 07 FD 08 04 07 FC 08 0B 07 FB 08 0C 07 FD 08 18 07 FD 08 2B 07 FC 08 48 07 FC 08 79 07 FD 08 69 07 FC 08 7D 08 00 08 38 07 FB 07 FC 07 FD 07 EE 07 FF 08 11 07 FB 08 38 07 FE 08 03 07 FF 07 F2 07 FB 07 93 07 FD 07 69 07 FE 07 7F 08 01 07 99 07 FC 07 A9 07 FE 07 B4 07 FC 07 BE 07 FD 07 CD 07 FE 07 DC 08 00 07 EA 07 FC 07 FF 07 FE 07 FB 08 00 08 1B 07 FC 08 74 07 FE 08 8C 07 FF 08 76 07 FB 08 48 07 FD 08 22 07 FE 08 F1 07 FB 08 0F 07 FD 08 50 08 05 08 7E 07 FB 08 2E 07 FD 07 B8 07 FE 07 77 07 FF 07 3C 07 FD 07 3F 07 FE 07 80 07 FE 07 B0 07 FD 07 C5 07 FF 07 CB 07 FE 07 D4 07 FD 07 E4 07 FD 07 ED 08 03 07 F5 07 FD 07 FC 07 FD 07 8B 07 FF 07 AD 07 FB 08 34 07 FE 08 6A 07 FE 08 67 07 FC 08 62 07 FE 08 7E 07 FD 08 A5 07 FD 08 99 07 FF 08 26 07 FC 07 D6 07 FB 07 EC 07 FE 07 FC 07 FD 07 C9 07 FD 07 88 07 FD 07 67 07 FE 07 85 07 FD 07 B5 07 FD 07 D3 07 FD 07 D5 07 FC 07 DA 07 FE 07 E8 07 FE 07 F0 07 FB 07 FB 07 FE 08 03 07 FF 08 05 07 FB 08 35 07 FC 08 68 08 02 08 86 07 FA 08 52 07 FD 08 94 07 FF 08 6E 07 FB 08 51 07 FE 08 23 07 FE 07 EF 07 FE 07 D5 07 FC 08 3C 07 FD 08 09 08 04 07 71 07 FC 07 61 07 FE 07 69 08 02 07 9A 07 FC 07 C8 07 FE 07 D6 08 05 07 D2 07 FA 07 D1 07 FD 07 D9 07 FF 07 E0 07 FF 07 EF 07 FC 08 03 07 FE 08 0A 07 FC 08 0C 07 FC 08 61 07 FF 08 27 07 FB 08 8F 07 FC 08 7C 07 FF 08 71 07 FC 08 52 07 FD 08 51 07 FE 08 18 07 FF 07 C9 07 FB 07 E2 07 FC 07 EA 08 05 07 C6 07 FA 07 A7 07 FD 07 AC 07 FE 07 C0 07 FB 07 C4 07 FC 07 C2 07 FF 07 C1 07 FC 07 CC 07 FD 07 D8 07 FE 07 E1 07 FD 07 ED 07 FD 07 C5 07 FD 07 CD 08 00 08 1E 07 FC 08 32 07 FF 08 4C 07 FE 08 7A 07 FC 08 71 07 FE 08 5D 08 01 08 F0 07 FC 07 FF 07 FD 07 EE 08 03 07 F8 07 FB 07 E4 07 FD 07 E1 07 FD 07 DE 07 FA 08 15 07 FD 07 7B 07 FE 07 78 07 FD 07 81 07 FB 07 93 07 FD 07 AC 07 FE 07 C2 07 FC 07 DA 07 FD 07 E7 07 FF 07 F6 07 FB 08 05 07 FC 07 FA 07 FE 07 F9 08 00 08 5B 07 FC 08 AB 07 FE 08 C0 07 FD 08 8E 07 FC 08 6E 07 FE 08 4E 07 FF 08 43 07 FC 08 3E 07 FE 08 16 08 02 08 07 07 FB 08 34 07 FD 07 0E 07 FE 07 F5 07 FD 07 C8 07 FC 07 9F 07 FF 07 8B 07 FC 07 92 07 FC 07 7A 07 FE 07 87 07 FC 07 96 07 FC 07 9A 07 FD 07 A0 07 FB 07 B7 07 FC 07 CC 07 FE 07 E6 08 02 08 2F 07 FB 08 72 07 FD 08 5A 07 FE 08 44 07 FB 08 51 07 FD 08 55 07 FF 08 5D 07 FA 08 38 07 FE 07 F7 07 FF 07 E3 07 FB 07 B1 07 FD 07 95 07 FD 07 8F 07 FB 07 89 07 FD 07 8D 07 FE 07 AD 07 FA 07 C6 07 FD 07 DA 07 FD 07 E9 07 FE 07 F1 07 FD 08 01 08 04 08 06 07 FB 08 10 07 FD 08 23 07 FE 08 45 07 FB 08 41 07 FD 08 68 07 FD 08 5D 07 FE 08 57 07 FD 08 20 07 FE 08 38 07 FB 08 69 07 FD 08 32 07 FE 08 17 07 FB 08 60 07 FD 08 2F 07 FF 07 F9 08 00 07 97 07 FD 07 72 07 FE 07 8E 07 FE 07 BA 07 FC 07 D7 07 FE 07 E0 08 00 07 E4 07 FC 07 E5 07 FD 07 EB 08 01 07 F2 07 FB 07 FA 07 FE 07 FE 08 01 07 D7 07 FA 07 D7 07 FC 08 35 07 FD 08 85 07 FC 08 98 07 FC 08 37 07 FE 07 E4 07 FC 07 D7 07 FC 08 08 07 FD 08 3C 07 FB 08 21 07 FC 07 D8 07 FD 07 B1 07 FE 07 AA 07 FC 07 B6 07 FE 07 B1 07 FB 07 AA 07 FC 07 B3 07 FE 07 BA 08 02 07 C7 07 FB 07 D9 07 FD 07 EF 08 01 07 FC 07 FC 07 FC 07 FE 07 F4 07 FB 07 FC 07 FD 08 27 07 FF 08 68 07 FE 08 81 07 FC 08 83 07 FD 08 57 07 FF 08 72 07 FB 08 AD 07 FD 08 71 08 03 08 15 07 FB 07 D9 07 FD 07 D8 07 FF 07 CC 07 FB 07 40 07 FD 07 7F 08 04 07 A9 07 FC 07 CE 07 FD 07 D0 07 FF 07 CB 07 FB 07 CE 07 FD 07 D4 07 FF 07 DE 07 FB 07 E0 07 FD 07 CE 07 FE 07 B3 08 03 08 16 07 FC 07 F7 07 FE 08 0B 07 FE 08 43 07 FC 08 AF 07 FE 08 A7 07 FE 08 3E 07 FB 07 E7 07 FD 07 CB 07 FC 07 DE 07 FC 07 DB 07 FE 07 B2 08 00 07 A6 07 FC 07 96 07 FD 07 73 07 FD 07 69 07 FB 07 77 07 FE 07 78 07 FD 07 85 07 FE 07 B5 07 FE 07 C6 07 FF 07 D2 07 FD 07 DE 07 FD 07 F1 07 FF 07 FE 07 FB 08 16 07 FE 08 5F 07 FE 08 99 07 FE 08 CD 07 FD 08 BE 07 FA 08 51 07 FD 08 96 07 FC 08 6E 07 FE 08 31 07 FE 07 D3 07 FC 07 B1 07 FE 07 C0 08 01 07 E0 07 FB 07 DB 07 FC 07 BE 08 03 07 BC 07 FC 07 D3 07 FE 08 EA 07 FE 07 F9 07 FE 08 06 07 FD 08 0F 07 FE 08 1F 07 FE 08 1E 07 FE 08 21 07 FE 08 18 07 FC 08 27 07 FC 08 42 07 FE 08 3B 07 FE 08 4F 07 FB 08 4F 07 FC 08 36 08 01 08 5F 07 FA 08 61 07 FD 08 32 07 FE 08 01 07 FC 07 D2 07 FD 07 9D 07 FE 07 85 07 FD 07 72 07 FB 07 80 07 FE 07 A9 07 FE 07 CD 07 FB 07 E0 07 FD 07 7A 07 FD 07 E4 07 FB 07 E4 07 FC 07 EB 07 FF 07 F3 07 FB 08 0D 07 FC 08 7D 08 FE 08 24 07 FF 08 40 07 FC 08 88 07 FE 08 81 07 FF 08 4E 07 FB 08 42 07 FE 08 3D 07 FF 08 2A 07 FF 07 E3 07 FC 07 F5 07 FE 08 22 08 FB 07 DF 07 FC 08 18 07 FF 07 EC 07 FC 07 9F 07 FB 07 6D 07 FD 07 6F 07 FE 07 88 07 FB 07 A2 07 FD 07 B4 07 FE 07 C3 08 00 07 D2 07 FD 07 DB 07 FF 08 5D 07 FB 08 54 07 FD 08 5A 08 03 08 98 07 FC 08 B7 07 FD 08 C0 07 FD 08 56 07 FD 08 36 07 FC 08 03 07 FD 08 0E 07 FF 08 49 07 FB 08 86 07 FC 08 B3 07 FD 08 AB 08 01 08 5D 07 FC 07 EF 07 FE 07 9B 07 FD 07 67 07 FC 07 64 07 FD 07 7C 07 FE 07 91 07 FB 07 A4 07 FC 07 B1 07 FE 07 C3 07 FC 07 D2 07 FC 07 E1 07 FE 07 EF 07 FD 07 FF 07 FC 08 41 07 FC 08 3E 07 FE 08 2B 07 FB 08 5F 07 FC 08 87 07 FF 08 93 07 FB 08 72 07 FD 08 21 07 FE 08 0A 07 FD 08 09 07 FC 07 DD 07 FE 07 DA 08 02 07 D0 07 FB 07 C3 07 FF 07 B5 07 FF 07 BA 07 FD 07 C5 07 FD 07 CF 07 FD 07 F4 07 FE 07 F6 07 FA 07 F9 07 FF 07 E4 07 FA 07 CA 07 FD 07 C5 07 FD 07 F7 07 FF 08 21 07 FC 08 67 07 FE 08 75 07 FB 08 50 07 FB 08 4E 07 FD 08 61 07 FF 08 4D 07 FF 08 06 07 FD 07 CC 07 FC 07 F4 07 FC 08 23 07 FD 07 F4 07 FC 07 BC 07 FC 07 A0 07 FD 07 96 07 FE 07 94 07 FC 07 9C 07 FD 07 AB 07 FD 07 B8 07 FA 07 BF 07 FB 07 C5 07 FD 07 C5 07 FC 07 C7 07 FD 07 E8 07 FD 08 21 07 FC 08 63 07 FC 08 B9 08 01 08 FB 07 FB 08 95 07 FC 07 F7 07 FE 07 C4 08 02 07 DE 07 FD 08 35 07 FC 07 EC 07 FE 07 F0 07 FC 07 D2 07 FE 07 D2 08 02 07 DC 07 FA 07 EE 07 FC 08 00 07 FE 07 89 07 FF 08 04 07 FC 08 02 07 FE 07 F8 07 FC 07 FD 07 FC 08 03 07 FD 07 FD 07 FE 07 F9 07 FB 07 E1 07 FC 08 01 07 FE 08 52 07 FA 08 6B 07 FD 08 65 08 FE 08 E7 07 FB 08 36 07 FD 08 36 07 FD 08 2F 08 01 08 21 07 FB 08 0B 07 FE 08 11 07 FF 08 0A 07 FC 07 D5 07 FE 07 82 07 FC 07 46 07 FC 07 42 07 FE 07 64 07 FD 07 86 07 FB 07 99 07 FD 07 A7 07 FE 07 AC 07 FC 07 B7 07 FE 07 CB 07 FE 07 DE 07 FD 07 F2 07 FE 08 03 08 04 08 31 07 FC 08 88 07 FE 08 A8 07 FE 08 91 07 FC 08 75 07 FF 08 80 07 FF 08 7F 07 FB 08 7A 07 FD 08 97 07 FF 08 6B 07 FC 08 E5 07 FD 07 73 07 FE 07 59 07 FE 07 86 07 FB 07 C2 07 FD 07 E1 07 FE 07 E1 07 FE 07 DE 07 FC 07 E3 07 FE 07 E6 07 FD 07 EC 07 FC 07 ED 07 FE 07 DD 07 FD 07 D2 07 FB 07 F5 07 FE 08 55 07 FC 08 C6 07 FE 08 63 07 FD 08 37 07 FE 08 3B 07 FB 08 31 07 FC 08 04 07 FE 08 04 07 FB 08 35 07 FD 08 4E 07 FE 08 38 07 FB 07 EB 07 FC 07 9A 08 04 07 63 07 FA 07 4A 07 FC 07 48 07 FF 07 4D 07 FE 07 56 07 FD 07 63 07 FE 07 74 07 FD 07 87 07 FC 07 A2 07 FE 07 CD 07 FD 07 ED 07 FC 07 FB 07 FE 08 17 07 FC 08 5E 07 FC 08 A1 07 FD 08 95 08 00 08 86 07 FB 08 61 07 FD 08 28 08 00 07 F4 07 FB 07 00 07 FE 07 9C 07 FF 07 7B 07 FC 07 5D 07 FD 07 4E 08 04 07 78 07 FB 07 B9 07 FC 07 E7 07 FF 07 FE 07 FB 08 0E 07 FD 08 15 07 FD 08 20 07 FE 08 2F 07 FB 08 37 07 FC 08 36 07 FD 08 1F 07 FE 08 22 07 FC 08 64 07 FC 08 A0 07 FD 08 CD 07 FA 08 D1 07 FD 08 85 07 FD 08 5A 07 FA 08 91 07 FE 08 5E 07 FE 08 41 08 02 08 3C 07 FD 08 0A 07 FE 07 D2 07 FC 07 C4 07 FC 07 C6 07 FF 07 CC 07 FD 07 D4 07 FC 07 DE 07 FD 07 E9 07 FD 07 EB 07 FC 07 C5 07 FD 07 DB 08 01 07 D3 07 FC 07 D9 07 FE 07 DC 07 FE 07 DC 07 FE 07 F8 07 FC 08 46 07 FF 08 96 08 01 08 A0 07 FC 08 66 07 FF 08 18 07 FC 08 05 07 FB 07 EF 07 FD 07 FB 07 FE 07 FB 07 FC 07 B8 07 FC 07 73 07 FD 07 59 07 FC 07 85 07 FB 07 BE 07 FD 07 D7 07 FD 07 D9 07 FB 07 D7 07 FE 07 D2 08 00 07 D2 07 FB 07 DB 07 FC 07 D5 07 FB 08 D7 07 FB 07 DB 07 FD 07 E4 07 FE 08 02 07 FC 08 38 07 FD 08 73 07 FE 08 A9 07 FE 08 73 07 FB 08 53 07 FE 08 2C 08 01 08 33 07 FB 08 4B 07 FD 07 E8 08 01 07 A9 07 FB 07 8E 07 FC 07 83 07 FE 07 86 07 FB 07 49 07 FC 07 A2 07 FE 07 B2 07 FB 07 C5 07 FD 07 D8 07 FF 07 EB 07 FF 07 F4 07 FD 07 FC 07 FE 08 07 07 FE 08 0B 07 FC 08 0A 07 FE 08 3C 07 FD 08 8D 07 FD 08 A7 07 FD 08 90 07 FC 08 46 07 FC 08 17 07 FE 08 11 07 FC 08 26 07 FB 08 48 07 FF 08 46 07 FC 07 D6 07 FC 07 85 07 FE 07 80 07 FC 07 A1 07 FC 07 C2 07 FE 07 DB 08 00 07 E9 07 FB 07 D7 07 FE 07 DC 07 FE 07 E2 07 FB 07 E8 07 FC 07 EA 07 FE 07 E1 07 FF 07 FC 07 FC 08 0B 07 FD 08 03 07 FD 08 28 07 FB 08 63 07 FC 08 83 08 FE 08 BE 07 FC 08 69 07 FC 08 7C 07 FE 08 67 07 FB 08 19 07 FC 07 DE 07 FE 07 D4 07 FC 07 C3 07 FC 07 B1 07 FE 07 A8 07 FB 07 90 07 FC 07 7E 07 FE 07 80 08 00 07 95 07 FB 07 AC 07 FD 07 C0 07 FE 07 CE 07 FB 07 E8 07 FC 07 8A 07 FE 08 0A 07 FD 08 31 07 FC 08 53 07 FE 08 70 07 FD 08 80 07 FC 08 86 07 FE 08 A7 08 02 08 62 07 FC 07 E7 07 FE 07 BF 07 FE 07 A8 07 FC 07 EF 07 FE 08 4D 07 FE 08 5F 07 FC 08 02 07 FE 07 A9 07 FC 07 6D 07 FB 07 99 07 FD 07 B0 08 03 07 C7 07 FB 07 D5 07 FC 07 D2 07 FF 07 C7 07 FB 07 C6 07 FC 07 D0 07 FE 07 DB 08 02 07 DB 07 FC 08 24 07 FE 08 14 07 FC 08 4C 07 FB 08 7D 07 FE 08 69 07 FB 08 30 07 FC 08 2C 07 FE 08 23 07 FC 08 3B 07 FC 08 29 07 FD 08 15 08 02 07 FF 07 FB 07 DC 07 FD 07 C7 07 FF 07 BE 07 FC 07 C5 07 FD 07 D6 07 FE 07 E0 07 FC 07 EF 07 FD 07 F6 07 FF 07 F7 07 FB 08 02 07 FC 08 11 07 FE 08 28 07 FD 08 49 07 FC 08 56 07 FE 08 8E 08 05 08 8A 07 FB 08 9E 07 FD 08 53 07 FE 08 0C 08 00 07 E0 07 FC 07 EC 07 FE 07 EE 07 FD 07 F0 08 00 07 52 07 FE 07 45 07 FE 07 4D 07 FB 07 70 07 FD 07 94 07 FE 07 A9 07 FC 07 B5 07 FD 07 BC 07 FE 07 CC 07 FE 07 E3 07 FB 07 F4 07 FD 07 F7 07 FE 07 F1 07 FB 07 E8 07 FD 07 F4 07 FD 08 09 08 00 08 2B 07 FB 08 65 07 FD 08 6B 07 FD 08 38 07 FB 08 2A 07 FD 08 26 08 00 08 28 07 FC 08 46 07 FD 08 1D 07 FF 07 EC 07 FB 07 A9 07 FD 07 7F 07 FE 07 9F 07 FB 07 7B 07 FB 07 FC 07 FF 08 0E 07 FB 08 1A 07 FD 08 28 08 04 08 34 07 FB 08 3B 07 FC 07 C6 07 FD 07 18 07 FE 08 1C 07 FD 08 33 07 FD 08 5A 07 FC 08 88 07 FD 08 AE 07 FD 08 C8 07 FF 08 92 07 FC 08 64 07 FF 08 57 08 03 08 6E 07 FC 08 B1 07 FD 08 59 07 FF 08 22 07 FB 07 C7 07 FD 07 74 07 FF 07 45 07 FA 07 28 07 FC 07 20 07 FD 07 28 07 FB 07 40 07 FC 07 58 07 FE 07 6D 07 FC 07 7B 07 FB 07 7D 07 FE 07 76 07 FB 07 67 07 FB 07 8A 07 FE 07 DC 07 01 08 55 07 FC 08 98 07 FC 07 D3 07 FD 07 E1 07 FB 07 FF 07 FE 08 30 07 FD 08 48 07 FC 08 5F 07 FD 08 43 07 FF 07 EC 07 FB 07 98 07 FD 07 83 08 01 07 F0 07 FA 07 D7 07 FE 07 CD 07 FE 07 D9 07 FB 07 E9 07 FD 07 D3 07 FE 08 00 07 FC 08 04 07 FD 08 0F 07 FF 08 19 07 FB 08 30 07 FD 08 49 07 FF 08 71 07 FD 08 73 07 FC 08 89 07 FF 08 AE 07 FC 08 82 07 FD 08 54 07 FE 08 61 07 FC 08 69 07 FD 08 5D 07 FD 08 20 07 FC 07 F3 07 FB 07 D4 07 FD 07 CF 07 FB 07 D4 07 FC 07 D5 07 FE 07 D6 07 FD 07 D8 07 FC 07 DE 07 FE 07 E5 07 FB 07 EC 07 FC 07 EE 07 FD 07 E6 08 00 07 D6 07 FB 07 D0 07 FC 07 F7 07 FF 08 52 08 00 08 54 07 FC 08 82 07 FE 08 89 07 FC 08 8F 07 FC 08 7B 07 FE 08 6F 07 FD 08 10 07 FC 08 3F 07 FC 07 A5 08 00 07 8F 07 FC 07 71 07 FD 07 44 07 FF 07 3E 07 FD 07 6D 07 FC 07 8C 07 FD 07 9A 07 FC 07 9D 07 FC 07 A7 07 FD 07 B3 08 00 07 C0 07 FB 07 CE 07 FE 07 DD 08 01 07 FD 07 FB 08 05 07 FD 07 A6 07 FE 07 37 07 FB 08 5A 07 FD 08 75 07 FE 08 80 07 FB 08 36 07 FC 08 15 07 FE 08 6D 07 FD 08 8A 07 FC 08 2B 07 FF 07 D8 07 FC 07 AD 07 FD 07 AC 07 FE 07 CB 07 FF 07 EA 07 FC 07 EE 07 FC 07 F0 07 FE 08 12 07 FE 08 26 07 FB 07 F7 07 FE 07 FD 07 FC 07 FE 07 FD 07 F3 07 FD 07 F6 07 FE 08 2B 07 FC 08 7D 07 FD 08 87 08 01 08 8F 07 FC 08 87 07 FE 08 87 07 FF 08 81 07 FC 08 39 07 FD 07 DA 07 FD 07 AA 07 FB 07 9E 07 FC 07 9D 08 02 07 8D 07 FA 07 76 07 FD 07 70 07 FF 07 78 07 FD 07 C2 07 FB 07 95 07 FE 07 9A 07 FB 07 9F 07 FC 07 A7 07 FE 07 AF 07 FB 07 AE 07 FC 07 A4 07 FD 07 AD 08 00 07 F9 07 FB 08 4F 07 FD 08 70 07 FE 08 73 07 FC 08 91 07 FC 08 66 07 FF 08 5A 08 03 08 51 07 FC 08 46 07 FE 08 3F 07 FE 07 B9 07 FC 07 88 07 FD 07 6E 07 FE 07 4D 07 FC 07 80 07 FB 07 C1 07 FF 07 E1 07 FF 07 EA 07 FC 07 E8 07 FD 07 F3 08 01 08 03 07 FC 08 0F 07 FD 08 13 07 FC 07 E7 07 FD 08 15 07 FF 08 1F 07 FD 08 5B 07 FB 08 90 07 FD 08 A6 07 FC 08 87 07 FB 08 4D 07 FC 08 38 08 03 08 6C 07 FB 08 85 07 FE 08 65 07 FE 08 11 07 FB 07 27 07 FD 07 CF 07 FF 07 C2 07 FC 07 AE 07 FD 07 99 08 03 07 94 07 FB 07 9B 07 FC 07 9E 08 03 07 A4 07 FA 07 A7 07 FE 07 AF 08 01 07 C5 07 FB 07 0B 07 FD 07 CE 08 05 07 F4 07 FB 08 37 07 FC 08 5E 07 FF 08 56 07 FB 08 96 07 FC 08 8B 07 FD 08 38 07 FC 07 FC 07 FC 07 ED 07 FE 07 F9 07 FC 07 EE 07 FD 07 96 07 FE 07 59 07 FB 07 72 07 FC 07 B1 07 FE 07 C9 07 FE 07 CD 07 FC 07 D3 07 FD 07 E4 07 FD 07 B2 07 FD 07 C8 07 FC 07 FB 07 FD 07 FD 07 FB 08 0C 07 FD 08 18 07 FD 08 2B 07 FC 08 F3 07 FF 08 23 08 FD 08 69 07 FC 08 4B 07 FC 08 46 07 FD 08 49 07 FD 08 1F 07 FB 07 ED 07 FE 08 05 07 FD 08 03 07 FB 07 FB 07 FE 07 DB 07 FF 07 C6 07 FC 07 D6 07 FB 07 BF 07 FC 07 B1 07 FE 07 B5 07 FF 07 B7 07 FB 07 C0 07 FD 07 D2 07 FC 07 E3 07 FB 08 0D 07 FC 08 2C 07 FE 08 3F 07 FE 08 33 07 FC 08 2B 07 FE 08 52 07 FD 08 B9 07 FC 08 C2 07 FE 08 8B 07 FF 08 5E 07 FC 08 4F 07 FE 08 55 07 FE 08 4C 07 FB 07 E7 07 FF 07 B5 07 FE 07 CF 07 FD 07 D2 07 FF 07 AA 07 FC 07 86 07 FC 07 80 07 FE 07 8B 07 FF 07 99 07 FC 07 A0 07 FD 07 9F 08 03 07 97 07 FB 07 8C 07 FE 07 EB 07 FE 08 AD 07 FC 07 E1 07 FE 08 1B 08 04 08 13 07 FA 07 E7 07 FC 07 F1 07 FF 08 70 08 00 08 5A 07 FD 08 37 07 FE 08 02 07 FF 07 C0 07 FC 07 E5 07 FE 08 1D 07 FD 08 22 07 FB 07 E0 07 FD 07 D7 07 FD 07 E1 07 FC 07 D7 07 FE 07 D8 08 01 07 E2 07 FC 07 EB 07 FE 07 C8 07 FF 07 C3 07 FA 07 0C 07 FE 08 24 07 FC 08 30 07 FC 08 4C 07 FD 08 61 07 FE 08 52 07 FB 08 61 07 FD 08 80 07 FE 08 52 07 FB 08 50 07 FD 08 47 07 FD 08 5C 07 FC 08 17 08 FD 08 09 08 04 07 EC 07 FB 07 CC 07 FE 07 9E 08 03 07 AE 07 FB 07 DA 07 FF 08 30 07 FB 08 2C 07 FC 07 F5 07 FD 07 E8 07 FE 07 DE 07 FB 07 DA 07 FD 07 CD 07 FE 07 C8 07 FE 07 DD 07 FD 08 0F 07 FE 08 27 07 FF 08 3D 07 FC 08 7A 07 FE 08 B2 07 02 07 FF 07 FC 07 EB 07 FD 07 C1 08 02 07 93 07 FB 07 C0 07 FD 07 F9 08 FE 07 DC 07 FB 07 89 07 FD 07 3C 07 FE 07 2E 07 FB 07 4B 07 FC 07 6E 07 FF 07 82 07 FF 07 86 07 FC 07 84 07 FF 07 91 07 FC 07 AA 07 FC 07 C5 07 FD 07 CD 08 00 07 D3 07 FC 08 0A 07 FE 08 7A 07 FB 08 D1 07 FC 08 FE 07 FE 09 07 08 01 08 F0 07 FC 08 B6 07 FD 08 91 07 FE 08 62 07 FB 08 24 07 FD 07 E1 08 01 08 00 07 FA 08 15 07 FD 07 E4 07 FE 07 CE 07 FC 07 E4 07 FD 07 B0 07 FE 07 CB 07 FA 07 E6 07 FE 08 01 07 FE 08 1E 07 FD 08 3F 07 FD 08 21 07 FE 08 1F 07 FD 08 19 07 FC 08 2B 07 FD 08 81 08 05 08 B2 07 FB 08 8F 07 FD 07 F7 07 FE 07 AA 07 FC 07 F8 07 FD 08 65 07 FE 08 6F 07 FF 08 4D 07 FC 08 34 07 FD 07 EC 07 FF 07 9F 07 FC 07 6E 07 FD 07 59 07 FE 07 57 07 FB 07 62 07 FE 07 7A 07 FE 07 87 07 FC 07 96 07 FC 07 9A 07 FD 07 A0 07 FB 07 B7 07 FC 07 CD 07 FE 07 DA 07 FC 08 19 07 FC 08 51 07 FD 08 79 08 01 08 95 07 FB 08 96 07 FD 08 41 08 00 08 04 07 FA 08 25 07 FD 08 1E 07 FE 08 42 07 FB 08 4D 07 FC 07 9F 07 FE 07 8F 08 02 07 87 07 FD 07 B1 07 FF 07 D7 07 FC 07 D7 07 FD 07 D1 07 FF 07 63 08 03 07 D8 07 FB 07 E0 07 FE 07 E0 07 FF 07 DB 07 FC 07 DA 07 FD 08 8B 07 FE 08 2B 07 FB 08 42 07 FD 08 5D 07 FE 08 36 08 01 08 3B 07 FC 08 6C 07 FD 08 4B 07 FE 08 2E 07 FB 08 4C 07 FD 08 60 07 FD 08 BE 07 FC 07 DC 07 FD 07 A6 07 FE 07 AD 07 FB 07 BE 07 FC 07 D4 07 FE 07 E4 07 FB 07 EA 07 FC 07 EC 07 FE 07 E4 08 01 07 EF 07 FC 07 FD 07 FE 07 FF 07 FD 07 F1 07 FC 07 E1 07 FE 08 14 08 02 08 69 07 FE 08 85 07 FE 08 88 07 FB 08 70 07 FC 08 40 07 FD 08 2A 08 02 08 10 07 FC 07 1C 07 FD 08 0F 08 01 07 F4 07 FB 07 BF 07 FE 07 98 07 FE 07 90 07 FD 07 9E 07 FC 07 AA 07 FE 07 B0 07 FE 07 B2 07 FC 07 B0 07 FD 07 B0 07 FE 07 B8 07 FC 07 C9 07 FD 07 D7 07 FE 07 E9 07 FB 07 FC 07 FD 08 27 07 FF 08 67 07 FB 08 8F 07 FC 08 78 07 FE 08 25 08 02 07 FD 07 FC 08 0A 07 FD 08 4C 07 FE 08 6A 07 FA 08 4F 07 FE 07 BE 08 04 07 81 07 FB 07 40 07 FC 07 58 08 00 07 97 07 FC 07 C1 07 FC 07 7D 07 FC 07 89 07 FE 07 92 07 FC 07 93 07 FC 07 A4 07 FE 07 F1 07 FC 07 F8 07 FE 08 07 08 03 08 16 07 FC 08 13 07 FE 08 41 07 FF 08 7D 07 FC 08 8D 07 FD 08 82 07 FE 08 87 07 FB 08 50 07 FD 08 3A 07 FF 08 44 07 FC 08 20 07 FD 07 E2 07 FE 07 DA 07 FD 07 AB 07 FC 07 6D 07 FD 07 6A 08 02 07 6D 07 FB 07 78 07 FD 07 85 07 FE 07 9C 07 FA 07 A7 07 FC 07 B8 07 FE 07 C7 07 FC 07 CD 07 FC 07 D1 07 FE 07 FD 07 FD 08 14 07 FB 08 32 07 FC 08 76 08 04 08 8B 07 FA 08 DB 07 FD 08 57 07 FE 08 45 07 FC 08 07 07 FC 08 07 07 FE 07 DE 08 00 07 AD 07 FE 07 E2 07 FE 07 A8 07 FD 07 A4 07 FC 07 C4 07 FD 07 F8 07 FE 08 1E 07 FB 08 2A 07 FD 08 28 07 FE 08 23 07 FD 08 19 07 FD 08 19 07 FE 08 2A 08 00 08 37 07 FC 08 4A 07 FE 08 78 08 03 08 98 07 FB 08 A5 07 FE 08 AA 07 FD 08 6E 07 FB 08 3C 07 FC 08 25 07 FF 08 2A 07 FC 08 34 07 FB 08 10 07 FE 07 E9 07 FE 07 DD 07 FC 07 B4 07 FD 07 81 07 FF 07 6A 07 FB 07 6F 07 FD 07 74 07 FE 07 7A 07 FB 07 82 07 FC 07 97 07 FD 07 A7 08 02 07 A3 07 FB 07 94 07 FC 08 02 07 FD 08 92 07 FB 07 DB 07 FC 08 32 07 FE 08 3F 07 FC 08 1D 07 FB 07 FA 07 FF 08 14 07 FC 08 5A 07 FC 08 54 07 FE 07 EB 08 02 07 C7 07 FB 07 DF 07 FC 07 FA 07 FE 08 0A 08 02 07 E6 07 FD 07 B9 07 FD 07 BE 07 FD 07 DB 07 FB 07 F7 07 FD 08 0F 07 FF 08 22 07 FB 08 32 07 FE 08 47 07 FF 08 5D 07 FB 08 54 07 FD 08 5A 08 03 08 98 07 FC 08 B7 07 FD 08 C0 07 FF 08 8A 07 FB 08 4D 07 FD 08 39 07 FE 08 1F 07 FB 08 19 07 FD 08 19 07 FF 07 FE 07 FD 07 F4 07 FC 07 FB 07 FF 07 C5 07 FC 07 6D 07 FC 07 30 07 FB 07 53 07 FB 07 47 07 FB 07 56 07 FD 07 69 07 FD 07 94 07 FB 07 D1 07 FD 07 FE 07 FD 08 0E 07 FB 08 00 07 FD 07 FE 07 FE 08 3F 07 FB 08 8A 07 FC 08 4D 07 FF 08 5A 07 FA 08 39 07 FC 08 0B 07 FE 07 EB 07 FC 08 12 07 FB 08 37 07 FD 08 08 07 FF 07 B2 07 FB 07 7B 07 FD 07 70 08 04 07 73 07 FB 07 9A 07 FC 07 CE 07 FF 07 E7 07 FB 07 ED 07 FD 07 F4 07 FE 07 F6 07 FA 07 F9 07 FC 08 03 07 FE 08 0C 07 FD 08 07 07 FC 08 1B 07 FE 08 68 07 FD 08 B2 07 FC 08 C3 07 FE 08 8A 07 FB 08 28 07 FC 07 EC 07 FE 08 0A 07 FF 07 DC 07 FC 08 45 07 FF 08 86 07 FB 08 8F 07 FC 08 62 07 FE 07 FD 07 FD 07 A0 07 FD 07 7B 07 FD 07 84 08 03 07 9E 07 FB 07 A8 07 FD 07 AF 08 01 08 12 07 FB 07 C5 07 FD 07 D0 07 FF 07 D1 07 FB 07 C2 07 FD 07 CD 07 FF 08 18 07 FA 08 2A 07 FC 08 32 07 FE 08 3E 07 FC 07 FD 07 FC 07 F4 07 FD 08 2B 07 FD 08 35 07 FC 07 EC 07 FE 07 B6 07 FF 07 D7 07 FC 08 FE 07 FE 08 35 07 FD 07 DB 07 FB 07 9A 07 FC 07 89 07 FF 07 92 07 FB 07 A3 07 FD 07 B2 08 05 07 C2 07 FB 07 CB 07 FD 07 D6 07 FE 07 E3 07 FC 07 04 07 FC 07 F2 07 FE 08 01 08 01 08 49 07 FC 08 B6 07 FE 08 E7 07 FD 08 6F 07 FC 08 AE 07 FE 08 65 08 00 08 33 07 FB 08 38 07 FE 08 55 07 FD 08 33 07 FC 07 C1 07 FD 07 75 07 FB 07 6D 07 FC 07 87 07 FD 07 A3 07 FB 07 B1 07 FC 07 CA 07 FE 07 D3 07 FE 07 E1 07 FC 07 EC 07 FE 07 F3 07 FC 08 04 07 FD 07 F2 07 FE 07 F8 07 FC 08 05 07 FC 08 2B 07 FD 08 50 07 00 08 08 07 FC 08 18 07 FE 08 31 07 FF 08 6B 07 FD 08 7A 07 FE 08 27 07 FF 07 FC 07 FC 08 0E 07 FD 08 30 07 FE 07 F4 07 FB 07 A8 07 FD 07 71 08 04 07 59 07 FC 07 5E 07 FD 07 74 07 FD 07 8D 07 FA 07 A3 07 FD 07 BA 08 01 07 D0 07 FC 07 DE 07 FE 07 D2 08 04 07 E7 07 FC 08 60 07 FD 08 C6 07 FE 08 FC 08 00 08 C0 07 FC 08 51 07 FE 08 03 07 FF 07 F2 07 FB 08 01 07 FD 08 2A 07 FE 08 5A 07 FB 08 74 07 FD 08 5A 07 FF 08 08 07 FB 07 C6 07 FD 07 A2 07 FE 07 96 08 02 07 9E 07 FC 07 A9 07 FE 07 B6 07 FD 07 BD 07 FC 07 CD 07 FD 07 DC 07 FD 07 E2 07 FB 07 D6 07 FC 07 DE 07 FE 08 36 07 FE 08 5B 07 FD 08 61 07 FF 08 8A 07 FB 08 A4 07 FD 08 58 07 FE 07 F7 07 FC 07 D8 07 FB 08 00 07 FF 07 D9 07 FC 07 B3 07 FB 07 99 07 FF 07 88 08 01 07 75 07 FD 07 6E 07 FD 07 B0 07 FD 07 7E 07 FC 07 90 07 FE 07 AA 07 FD 07 BE 07 FB 07 D8 07 FD 07 08 07 FE 07 F3 07 FB 07 DD 07 FD 08 0E 07 FE 08 68 07 FC 08 9C 07 FD 08 AA 07 FE 08 B3 08 01 08 C8 07 FD 09 07 07 FE 08 EE 07 FF 08 52 07 FD 08 1A 07 FF 08 08 08 01 07 E4 07 FC 07 DE 07 FE 07 C4 07 FB 07 DF 07 FE 07 A4 07 FE 07 AA 07 FC 07 AE 07 FC 07 B8 07 FF 07 C3 07 FD 07 C5 07 FD 07 C7 07 FE 07 C4 07 FB 07 BD 07 FD 07 9C 07 FE 07 92 07 FC 08 0C 07 FD 08 3B 07 FE 08 3F 07 FE 08 1B 07 FC 07 EC 07 FF 08 18 07 FC 08 62 07 FD 08 94 07 FE 08 46 08 01 07 EF 07 FB 07 B7 07 FE 07 80 07 FE 07 58 07 FC 07 62 07 FE 07 96 08 03 07 C9 07 FC 07 DD 07 FD 07 E1 08 01 07 DB 07 FA 07 DB 07 FD 07 E0 07 FF 07 F0 07 FB 08 0B 07 FD 08 11 07 FE 08 3C 07 FB 08 76 07 FC 08 89 07 FE 08 90 07 FC 08 A9 07 FC 08 E4 07 FE 08 D2 08 01 08 9C 07 FC 08 5D 07 FE 08 50 07 FC 08 7D 07 FB 08 67 07 FE 08 06 07 FB 07 A4 07 FC 07 67 07 FE 07 49 07 FC 07 54 07 FD 07 69 07 FE 07 68 07 FC 07 7D 07 FC 07 95 07 FE 07 AB 07 FD 07 AE 07 FC 07 B3 07 FD 07 92 07 FC 07 A7 07 FC 08 32 07 FD 08 85 07 FE 08 6A 07 FB 08 34 07 FC 08 35 07 FD 08 5C 07 FF 08 78 07 FD 08 2E 07 FD 07 A5 07 FF 07 83 07 FB 07 8C 07 FD 07 7F 07 FE 07 A2 07 FA 07 9A 07 FD 07 C2 07 FE 07 DB 08 00 07 E9 07 FB 07 F5 07 FD 08 01 07 FC 08 01 07 FB 08 0A 07 FD 08 12 07 FE 08 14 07 FC 08 0F 07 FD 08 1E 07 FE 08 3F 07 FC 08 60 07 FC 08 87 07 FE 08 C0 07 FE 08 BE 07 01 08 65 07 FD 08 E2 08 02 08 94 07 FB 08 63 07 FD 08 3B 07 FE 08 1A 08 01 08 56 07 FD 08 31 07 FE 08 16 08 00 07 C3 07 FC 07 89 07 FE 07 79 08 02 07 7E 07 FC 07 C7 07 FD 07 8D 07 FD 07 93 07 FC 07 8E 07 FC 07 8A 08 04 07 6E 07 FB 07 75 07 FD 07 D6 07 FF 08 54 07 FB 08 7C 07 FB 08 43 08 01 07 F2 07 FA 07 DE 07 FC 07 BF 07 FF 07 A8 07 FE 07 A8 07 FC 07 EF 07 FB 07 B1 07 FE 08 5F 07 FC 08 02 07 FE 07 A9 07 FC 07 6D 07 FB 07 5E 07 FD 07 6C 08 02 07 7D 07 FC 07 92 07 FD 07 A7 08 03 07 BD 07 FC 07 FF 07 FD 07 CA 07 FF 07 BF 07 FB 07 F4 07 FD 08 24 07 FE 08 67 07 FC 08 91 07 FC 07 C6 07 FE 08 4D 07 FE 08 2C 07 FD 08 62 07 FE 08 6C 08 01 08 3A 07 FD 07 FE 07 FE 07 F8 07 FE 07 BF 07 FD 07 69 07 FE 07 66 07 FB 07 8A 07 FE 08 47 07 FB 07 D4 08 00 07 EE 07 FC 07 FB 07 FE 08 0B 07 FC 08 15 07 FB 08 1A 07 FC 08 25 07 FD 08 30 07 FB 08 20 07 FE 08 3A 08 01 08 64 07 FC 09 8A 07 FE 08 AF 07 FC 08 AB 07 FC 08 91 07 FE 08 94 07 FE 08 5A 07 FC 08 2D 07 FD 07 F0 08 00 08 0E 07 FC 08 2B 07 FE 07 FB 07 FC 07 9F 07 FD 07 83 07 FD 07 95 07 FD 07 AC 07 FC 07 C1 07 FE 07 D1 07 FF 07 A7 07 FB 07 E8 07 FD 07 F4 07 FF 07 E7 07 FD 07 E6 07 FC 08 18 07 FE 08 4A 08 FE 08 08 07 FB 08 2F 07 FE 08 54 07 FF 08 69 07 FB 08 65 07 FC 08 50 07 FE 08 5F 07 FB 07 79 07 FD 08 35 07 FE 08 42 07 FE 08 37 07 FD 08 06 07 FE 07 B9 07 FD 07 7B 07 FC 06 79 07 FE 07 92 07 FD 07 AA 07 FB 07 B8 07 FD 07 BF 07 FB 07 C4 07 FB 07 C6 07 FE 07 87 07 FD 07 CE 07 FB 07 C2 07 FE 07 F9 08 00 08 65 07 FA 08 5D 07 FC 08 B4 07 FC 08 B8 07 FC 08 09 07 FD 08 01 08 00 07 D2 07 FA 07 B1 07 FD 07 C8 08 01 08 17 07 FC 08 71 07 FD 08 5C 07 FC 07 BC 07 FC 07 85 07 FC 07 79 07 FE 07 90 07 FC 07 A8 07 FD 07 B5 08 FD 08 BF 07 FC 07 C9 07 FD 07 D4 07 FF 07 E5 08 02 07 F2 07 FC 07 E4 07 FF 08 61 07 FB 08 55 07 FC 08 98 07 FF 08 B5 07 FC 08 DA 07 FC 08 A6 07 FD 08 2A 08 FB 08 0C 07 FD 08 5F 07 FD 08 43 07 FF 07 EC 07 FB 07 98 07 FD 07 83 07 FE 07 CA 07 FB 07 93 07 FD 07 B3 07 FD 07 B8 07 FB 07 C7 07 FB 07 D3 07 FE 07 E4 07 FE 07 D9 07 FC 07 EB 07 FD 07 FE 07 FE 07 F8 07 FB 08 06 07 FC 08 2D 08 03 08 54 07 FA 08 4F 07 FD 08 7D 07 FF 08 6F 07 FB 08 F5 07 FC 07 E3 07 FE 08 30 07 FB 08 93 07 FD 08 4A 07 FE 07 A7 07 FC 07 54 07 FD 07 55 07 FF 07 75 07 FC 07 BB 07 FD 07 F1 07 FE 08 04 07 FE 08 07 07 FC 08 07 07 FF 08 07 07 FC 08 07 07 FD 07 FC 07 FF 07 EF 08 00 07 E4 07 FD 08 18 07 FD 08 52 08 00 08 54 07 FC 08 90 07 FE 08 CD 08 02 08 D2 07 FC 08 B7 07 FE 08 87 08 04 08 5B 07 FB 08 3F 07 FC 08 37 07 FE 08 43 08 02 08 2F 07 FC 07 AB 07 FD 07 A7 07 FF 07 10 07 FB 07 23 07 FC 07 47 07 FE 07 57 07 FB 07 6C 07 FC 07 83 07 FC 08 80 07 FB 08 9A 07 FC 07 82 07 FD 07 69 07 FC 07 6F 07 FB 07 A6 07 FE 07 F4 07 FD 08 1E 07 FD 08 1B 07 FD 07 E4 07 FE 07 AA 07 FB 07 A1 07 FC 07 D4 07 FF 08 03 07 FE 07 B9 07 FE 07 A2 07 FD 07 E4 07 FF 07 E1 07 FB 07 F2 07 FD 07 DF 08 01 07 D4 07 FB 07 A8 07 FE 08 12 07 FE 08 26 07 FB 08 37 07 FC 08 2F 07 FE 08 33 07 FC 08 3F 07 FE 07 9F 07 FF 08 3B 07 FD 08 7F 07 FD 08 9C 07 FE 08 C9 07 FC 08 BE 07 FC 08 9A 07 FE 09 23 07 FD 08 6C 07 FC 08 70 07 FE 08 7D 08 00 08 8D 07 FD 08 32 07 FE 07 DA 07 FE 07 EF 07 FB 07 A0 07 FC 07 B5 07 FD 07 C2 07 FB 07 BF 07 FD 07 BD 08 00 07 C1 07 FB 07 C6 07 FC 07 FF 07 FE 07 D4 07 FE 07 D7 07 FD 07 E3 07 FE 08 09 07 FD 07 F6 07 FB 08 28 07 FD 08 74 07 FC 08 79 07 FC 08 6F 07 FD 08 46 07 FD 08 01 07 FB 07 D3 07 FD 09 08 07 FC 07 B9 07 FC 07 88 07 FD 07 8F 08 00 07 8C 07 FB 07 6E 07 FD 07 67 08 FD 07 F3 07 FC 07 79 07 FD 07 85 07 FE 07 93 08 02 07 A1 07 FC 07 B2 07 FE 07 CB 07 00 08 1E 07 FC 08 15 07 FF 08 3D 07 FB 08 23 07 FD 08 56 07 FE 08 B5 07 FD 08 B1 07 FC 08 DC 07 FD 08 27 07 FD 08 3A 07 FB 08 51 07 FD 08 2A 07 FC 07 FD 07 FB 08 27 07 FE 08 27 08 01 08 01 07 FC 07 D6 07 FC 07 D7 07 FF 07 F4 07 FB 08 10 07 FD 08 19 07 FD 08 16 07 FC 08 16 07 FC 08 04 07 FE 07 FF 08 00 08 0B 07 FC 06 19 07 FE 08 35 07 FA 08 40 07 FC 08 34 07 FE 08 59 07 FF 08 96 07 FC 08 8B 07 FD 08 38 07 FC 07 FC 07 FC 07 E9 07 FE 07 C1 07 00 08 8C 07 FD 07 6F 07 FE 07 71 07 FC 07 83 07 FC 07 85 07 FD 07 7A 07 FB 07 76 07 FD 07 83 07 FE 07 9F 07 FD 07 B2 07 FD 07 C8 07 FE 08 65 07 FD 08 65 07 FD 08 5C 07 FA 08 42 07 FD 07 E8 07 FC 07 F3 07 FF 08 23 08 01 08 63 07 FD 08 87 07 FF 08 A2 07 FD 08 A1 07 FD 08 74 07 FE 08 5A 07 FC 08 31 07 FC 08 33 07 FE 08 22 07 FE 08 13 07 FC 07 FC 07 FF 07 D6 07 FB 07 BF 07 FC 07 B1 07 FE 07 B5 07 FF 07 B7 07 FB 07 C0 07 FD 07 D2 07 FC 07 E3 07 FB 07 E4 07 FF 07 F3 08 02 08 01 07 FC 08 27 07 FD 08 6F 08 FC 08 99 07 FB 08 C4 07 FD 08 97 07 FF 08 43 07 FB 08 0D 07 FE 08 31 07 FB 07 E2 07 FD 07 CC 07 FF 08 44 07 FE 08 39 07 FC 07 F8 07 FD 07 A0 07 FE 07 47 07 FA 07 0D 07 FD 07 03 07 FE 07 1E 08 02 07 51 07 FC 07 7F 07 FD 07 A6 07 FE 07 C1 07 FE 07 D0 07 FE 07 EB 07 FE 08 03 07 FE 08 0C 07 FC 08 25 07 FE 08 60 07 FC 08 9F 07 FC 08 9A 07 FF 08 70 08 00 08 5A 07 FD 08 33 07 FD 07 CC 07 FF 07 F1 07 FC 08 0B 07 FE 07 CA 08 02 07 CB 07 FB 07 E0 07 FC 07 D7 07 FF 07 C1 07 FB 07 BB 07 FC 07 BE 07 FE 07 C3 07 FB 07 C5 07 FD 07 C8 07 FF 07 C3 07 FA 07 BF 07 FD 07 CF 07 FE 07 D9 07 FE 07 29 07 FE 08 43 07 FD 08 61 08 04 08 61 07 FA 08 54 07 FC 08 68 07 FE 08 4B 08 01 08 2F 07 FB 08 1C 07 FD 08 17 08 03 08 19 07 FB 08 19 07 FC 08 34 07 FF 08 34 07 FA 08 2A 07 FD 08 2F 07 FF 08 30 07 FB 08 2C 07 FC 08 25 07 FE 08 21 08 03 08 21 07 FC 08 22 07 FD 08 21 07 FF 08 16 07 FB 08 04 07 FD 08 12 07 FF 08 3F 07 FB 08 5F 07 FC 09 95 07 FE 08 B2 07 FC 08 8D 07 FB 08 52 07 FE 08 2C 07 FD 08 0D 07 FC 07 71 07 FC 07 B3 08 02 07 7A 07 FA 07 4F 07 FC 07 2F 07 FE 07 22 08 00 07 87 07 FB 08 16 07 FE 07 0C 07 FC 07 08 07 FB 07 11 07 FE 07 2D 07 FE 07 47 07 03 08 BA 07 FC 08 8D 07 FE 07 60 07 FD 07 86 07 FE 07 FB 08 01 08 46 07 FC 08 67 07 FE 08 7C 07 FC 07 9C 07 FB 08 6B 07 FE 08 0A 07 FE 07 F0 07 FB 08 17 07 FC 08 43 07 FF 06 CC 07 FD 06 AA 07 FB 07 CF 07 FE 07 CE 07 FC 07 E4 07 FC 08 14 07 FD 08 31 08 01 08 81 07 FC 08 3D 07 FC 08 3D 08 01 08 3F 07 FA 08 4C 07 FD 08 4F 07 FF 08 58 07 FE 07 A8 07 FB 07 7D 07 FD 08 B2 07 FB 08 D1 07 FC 08 C0 07 FF 08 99 07 FB 08 63 07 FD 08 B4 07 FD 08 B8 07 FE 08 C7 07 FC 08 52 07 FE 08 16 07 FC 07 DF 07 FC 07 9C 07 FE 07 7C 08 00 07 B4 07 FF 07 C0 07 FE 07 DD 07 FE 07 DA 07 FB 07 DD 07 FC 07 DE 07 FD 07 D9 08 02 07 DC 07 FC 07 32 07 FC 07 F4 08 02 08 15 07 FA 08 16 07 FD 08 2E 07 FE 08 5F 07 FB 08 AC 07 02 08 8B 07 FE 08 82 07 FC 08 89 07 FC 08 93 07 FE 08 58 07 FD 08 0E 07 FC 07 DD 07 FA 07 6C 07 FB 07 66 07 FC 07 62 07 FE 07 60 08 02 07 5D 07 FB 07 58 07 FF 07 D9 07 FB 07 6F 07 FB 07 80 07 FD 07 89 07 FD 07 7F 07 FB 07 79 07 FD 07 D2 07 FF 07 B6 07 FB 07 F5 07 FE 08 41 07 FE 08 6E 07 FB 08 75 07 FD 08 7D 07 FE 07 96 07 FD 07 A5 07 FC 07 D2 07 FE 07 E1 07 FD 07 BE 07 FC 07 DC 07 FF 08 23 07 FD 08 25 07 FD 08 00 07 FE 07 DF 07 FE 07 E4 07 FC 07 FB 07 FE 08 0E 07 FD 08 14 07 FB 08 1A 07 FE 08 31 07 FD 08 45 07 FC 08 3C 07 FE 08 31 07 FF 08 77 07 FC 08 C0 07 FE 08 BF 07 FF 08 B0 07 FB 08 95 07 FE 08 B2 07 FE 08 AD 07 FB 08 43 07 FC 07 EC 08 04 07 93 07 FA 07 B6 07 FC 08 43 07 FD 08 21 07 FC 07 83 07 FC 07 4C 07 FD 07 67 07 FE 07 93 07 01 07 8C 07 FD 07 C5 07 FC 07 D2 07 FC 07 C1 07 FD 07 A1 07 FF 07 99 07 FC 07 96 08 02 07 DB 07 FB 07 D0 07 FD 07 E1 07 FD 08 0E 07 FE 08 0C 07 FB 07 E3 07 FC 07 D2 07 FD 07 F3 07 FC 08 20 07 FD 08 15 07 FF 07 BE 08 00 07 BE 07 FD 07 F5 07 FE 08 21 07 FC 07 F5 07 FD 07 94 07 FE 07 71 07 FC 07 92 07 FC 07 89 07 FE 07 92 07 FC 07 93 07 FC 07 A4 07 FE 07 C2 07 FF 07 D7 07 FC 07 DE 07 FD 07 D7 08 01 08 1B 07 FA 08 7C 07 FD 08 75 07 FE 08 5C 07 FB 08 97 07 FC 08 C0 07 FE 08 88 08 00 08 7C 07 FB 08 7A 07 FF 08 9A 07 FF 08 5E 07 FC 08 85 07 FC 08 62 07 FD 08 2D 07 FB 08 14 07 FD 08 04 07 FE 07 FD 07 FB 07 FE 07 FE 08 04 07 FC 08 07 07 FC 08 13 07 FD 08 1C 08 00 08 2C 07 FB 08 35 07 FC 08 29 07 FF 08 56 07 FB 08 A0 07 FD 08 B8 07 FE 08 E1 07 FB 08 DB 07 FD 08 5A 07 FE 08 0C 07 FB 08 01 07 FD 07 FF 07 FF 07 E0 07 FB 07 B0 07 FE 07 E2 07 FF 08 2D 07 FD 08 0A 07 FD 07 AA 07 FE 07 5F 08 00 07 4D 07 FC 07 61 07 FF 07 6A 07 FC 07 71 07 FD 07 75 07 FE 07 80 07 FB 07 94 07 FD 07 A0 07 FE 07 A3 07 FC 07 C1 07 FC 07 CB 07 FC 08 F2 07 FB 08 28 07 FD 08 36 07 FD 07 C8 07 FC 07 7B 07 FC 07 BB 07 FD 08 6F 07 FC 08 A4 07 FB 08 33 07 FE 07 D7 07 FD 07 D2 07 FB 07 E1 07 FC 07 E5 07 FD 07 D4 07 FA 07 CF 07 FC 07 DF 07 FF 07 EA 07 FF 07 F5 07 FC 08 04 07 FD 08 09 08 04 08 05 07 FC 08 02 07 FD 08 11 07 FD 08 4A 07 FB 08 6D 07 FD 08 94 07 FE 08 C3 07 FB 08 A2 07 FD 08 5D 07 FE 08 20 07 FE 07 C1 07 FC 07 DA 07 FE 07 EC 07 FD 08 2A 07 FC 08 5A 07 FE 08 12 08 02 07 B3 07 FB 07 81 07 FC 07 75 08 02 07 85 07 FB 07 97 07 FD 07 D7 08 02 07 CE 07 FB 07 AD 07 FD 07 B3 07 FE 07 B6 07 FE 07 B5 07 FC 07 92 07 FD 07 99 07 FB 07 D0 07 FC 07 78 07 FD 08 AA 07 FE 08 53 07 FE 08 0D 07 FB 08 02 07 FF 08 19 07 FD 08 10 07 FC 08 26 07 FD 08 40 07 FE 08 50 07 FB 08 1B 07 FE 07 CC 07 FE 07 2B 07 FD 07 53 07 FE 07 7C 07 FC 07 B2 07 FC 07 D8 07 FD 07 F1 07 FD 08 00 07 FE 07 B7 08 00 07 D3 07 FD 08 08 07 FB 08 1D 07 FD 08 57 08 01 08 48 07 FB 08 4D 07 FD 08 BD 07 FC 09 16 07 FC 08 C9 07 FE 08 68 08 04 08 34 07 FB 08 01 07 FD 08 11 07 FE 08 37 07 FC 08 73 07 FE 08 D6 07 FA 08 CF 07 FC 08 64 07 FE 08 07 07 FC 07 60 07 FC 07 76 07 FE 07 81 07 FD 07 88 07 FC 07 97 07 FD 07 95 07 FE 07 A1 07 FC 07 B7 07 FD 07 C0 08 03 07 E0 07 FB 08 41 07 FD 08 5C 07 FE 08 3E 07 FB 08 0C 07 FC 07 E5 07 FE 07 E2 07 FA 07 DC 07 FC 07 F4 07 FF 07 F6 07 FC 07 DE 07 FC 08 12 07 FD 08 5D 08 01 08 47 07 FB 07 DA 07 FD 07 9E 08 00 07 B7 07 FB 07 F0 07 FD 08 08 07 FE 08 12 07 FC 08 1B 07 FC 08 20 07 FF 08 18 08 02 07 FF 07 FC 08 0D 07 FF 08 3F 07 FB 08 45 07 FD 08 50 07 FE 08 73 07 FC 08 9F 07 FC 08 B2 07 FF 08 87 07 FE 06 F9 07 FC 09 09 07 FF 09 45 07 FD 09 12 07 FC 08 FE 07 FD 08 BF 07 FE 08 6F 07 FB 08 0B 07 FD 07 AF 07 FE 07 7F 07 FA 07 5C 07 FD 07 41 07 FE 07 26 07 FD 07 14 07 FC 07 04 07 FE 06 FF 07 FC 07 04 07 FC 06 F6 07 FE 06 FB 07 FB 07 2C 07 FB 07 6E 07 FE 07 7D 07 FB 07 6F 07 FC 07 43 07 FE 07 17 07 FC 07 4E 07 FC 07 5E 07 FE 07 28 08 02 06 F2 07 FC 06 FA 07 FD 07 A1 07 FE 07 62 07 FB 07 54 07 FE 07 7E 07 FF 07 B1 07 FB 07 F0 07 FE 08 34 07 FE 08 A1 07 FF 07 84 07 FB 08 AC 07 FE 08 BB 07 FB 08 C4 07 FD 08 CA 08 05 08 CD 07 FB 09 0B 07 FD 08 50 07 FF 09 5D 07 FD 09 52 07 FD 09 30 07 FF 08 E4 07 FC 08 A5 07 FC 08 AE 07 FE 08 8C 07 FF 08 3B 07 FD 08 01 07 FE 07 F9 07 FD 08 14 07 FD 08 12 07 FE 08 05 07 FC 08 05 07 FC 08 0F 07 FE 08 1A 07 03 08 15 07 FB 08 17 07 FD 08 14 07 FF 08 0A 07 FA 07 FC 07 FD 08 06 08 02 08 3B 07 FB 08 55 07 FD 08 7C 08 02 08 8E 07 FC 08 5D 07 FC 07 FE 08 02 07 CC 07 FB 07 A7 07 FC 07 74 08 03 07 68 07 FB 08 32 07 FE 07 BE 07 FE 07 D0 07 FD 07 BC 07 FD 07 98 07 FE 07 89 08 00 07 8A 07 FC 07 8A 07 FF 07 91 07 FE 07 9D 07 FD 07 AE 07 FF 07 C0 07 FD 07 CC 07 FD 07 CE 07 FE 07 DE 07 FD 07 D0 07 FC 08 05 07 FE 08 5C 08 03 08 88 07 FB 08 8B 07 FE 08 4B 07 FF 08 24 07 FC 07 EE 07 FC 07 A0 07 FF 07 D9 08 FC 08 0E 07 FC 07 E6 07 FE 07 B4 07 FD 07 B6 07 FD 07 BA 07 FD 07 B0 07 FE 07 AE 07 FC 07 B7 07 FE 07 D2 07 FE 07 E6 07 FB 07 F7 07 FE 08 08 07 FC 08 19 07 FD 08 1F 07 FE 08 16 07 FC 07 FC 07 FB 08 71 07 FE 08 71 07 FC 08 5D 07 FB 08 42 07 FE 08 23 07 FC 08 A5 07 FD 08 3C 07 FC 07 D5 07 FD 08 0D 07 FC 08 17 07 FD 08 6C 07 FC 08 5F 07 FC 07 DF 07 FE 07 68 07 FE 07 BA 07 FC 07 64 07 FE 07 7B 07 FB 07 8A 07 FC 07 92 07 FE 07 A1 07 FC 07 A9 07 FE 07 FD 07 FC 07 B8 07 FC 07 C8 07 FC 08 0C 07 FD 08 63 07 FD 08 78 07 FC 08 7A 07 FC 08 84 08 02 08 61 07 FB 08 4A 07 FD 08 4C 08 04 08 44 07 FC 08 2A 07 FB 07 9B 07 FE 07 E9 07 FB 07 6F 07 FC 07 34 07 FE 07 56 07 FC 07 9C 07 FB 07 96 07 FC 07 C2 07 FE 07 D0 07 FB 07 D9 07 FB 07 FF 08 00 08 06 07 FA 08 0C 07 FC 08 10 07 FD 08 2F 07 FD 08 35 07 FC 08 3E 07 FE 08 95 07 FB 08 C3 07 FC 08 C4 07 FF 08 CA 07 FB 08 7F 07 FC 08 1A 07 FE 08 81 07 FE 08 16 07 FD 08 0F 07 FE 07 F6 07 FF 07 BF 07 FC 07 7F 07 FE 07 69 07 01 07 63 07 FD 07 69 07 FE 07 68 07 FC 07 7D 07 FC 07 95 07 FE 07 AB 07 FD 07 C2 07 FC 07 D5 07 FE 07 DC 08 00 08 01 07 FB 08 0C 07 FD 07 FB 07 FE 07 AE 07 FC 07 A0 07 FD 08 88 07 FF 08 65 07 FE 08 39 07 FB 08 21 07 FD 08 0A 08 02 08 09 07 FD 08 52 07 FF 08 C8 08 03 07 A2 07 FC 07 7F 07 FE 07 8A 08 00 07 A5 07 FC 07 B1 07 FE 07 8C 07 FC 07 AF 07 FC 07 C1 07 FD 07 DB 08 00 07 FA 07 FB 08 16 07 FC 08 37 07 FE 08 3E 07 FC 08 4A 07 FD 08 A8 08 00 08 FB 07 FB 08 EA 07 FC 08 CE 08 01 08 65 07 FB 08 43 07 FD 08 44 08 04 08 0B 07 FB 07 DD 07 FD 08 3B 07 FF 08 56 07 FD 07 B9 08 01 07 42 07 FB 07 16 07 FD 07 04 08 05 06 DC 07 FB 06 A3 07 FE 07 C7 07 FB 07 D6 07 FC 07 EE 07 FF 07 F5 07 FB 08 08 07 FD 08 21 07 FD 08 47 07 FD 08 74 07 FC 08 8A 07 FE 08 8F 07 FD 08 A0 07 00 08 75 07 FC 08 C2 07 FD 08 6F 07 FC 08 1C 07 FE 08 42 08 00 08 3B 07 FB 07 B1 07 FB 08 60 07 01 07 49 07 FB 07 40 07 FD 07 2E 07 FF 07 17 07 FC 06 FF 07 FD 06 F2 07 FD 06 F1 07 FC 06 F5 07 FD 06 FE 08 00 06 FF 07 FA 07 02 07 FD 06 F3 07 FE 06 C8 07 FB 06 E9 07 FC 07 75 07 FE 07 D7 07 FB 08 2F 07 FE 07 64 07 FF 07 4D 07 FC 07 8B 07 FC 07 DA 07 FF 07 FE 07 FD 08 51 07 FC 08 B5 07 FD 08 BF 08 00 08 AF 07 FB 08 94 07 FD 08 61 07 FE 07 47 07 FB 08 54 07 FC 08 67 07 FF 08 6D 07 FD 08 78 07 FB 08 6D 07 FE 07 EE 07 FC 08 65 07 FC 08 80 07 FD 08 9E 07 FD 08 BE 07 FB 09 0E 07 FC 09 27 07 FE 08 EF 07 FE 08 B7 07 FC 08 B7 07 FD 08 8D 08 02 08 67 07 FC 08 7B 07 FC 08 72 07 FF 08 4B 07 FC 08 12 07 FE 07 CA 08 01 07 A2 07 FB 07 C3 07 FD 08 1C 08 00 08 70 07 FB 08 A3 07 FC 08 B1 07 FE 08 A7 07 FB 08 82 07 FD 08 5C 07 FE 08 25 07 FB 07 F0 07 FD 07 ED 07 FE 08 04 07 FE 08 08 07 FD 08 2F 07 FE 08 58 08 03 08 3F 07 FB 07 F3 07 FE 07 8F 08 02 08 5F 07 FB 07 79 07 FD 07 4F 07 FF 07 00 07 FD 06 DE 07 FC 06 CE 07 FE 07 DD 07 FC 07 EB 07 FC 06 79 07 FE 06 76 07 FC 06 8A 07 FC 06 B2 07 FF 06 ED 07 FC 07 25 07 FD 07 D8 07 FD 07 87 07 FB 07 BB 07 FC 07 F7 07 FD 08 39 08 01 08 6D 07 FC 08 AD 07 FD 08 5E 07 FC 08 B8 07 FC 08 CF 07 FF 08 A5 07 FD 08 7D 07 FC 08 88 07 FE 08 4C 07 FB 08 87 07 FC 08 71 07 FD 08 5C 07 FC 08 0E 07 FC 07 D5 07 FE 07 D8 07 FC 07 82 07 FD 08 02 07 FF 08 0E 07 FD 08 20 07 FD 08 2B 07 FE 08 2B 07 FD 08 1C 07 FC 08 13 07 FD 08 25 07 FE 08 61 07 FB 08 A2 07 FE 08 B1 08 FC 09 17 07 FE 08 EF 07 FE 08 81 07 FE 08 0B 07 FC 08 0C 07 FD 07 D1 07 FE 07 99 07 FB 07 9E 07 FE 07 D9 07 FE 07 FE 07 FE 07 CA 07 FB 07 93 07 FE 07 8C 07 FF 07 9E 07 FC 07 B1 07 FE 07 BD 08 02 07 CD 07 FB 07 D9 07 FC 07 EB 07 FB 07 F8 07 FB 07 FA 07 FD 08 11 07 FD 08 1B 07 FB 08 24 07 FD 08 4F 07 FD 08 7D 07 FF 08 6F 07 FB 08 72 07 FE 08 4E 07 FC 08 3C 07 FC 08 62 07 FE 08 97 07 FD 08 B6 07 FC 08 70 07 FE 07 BB 07 FD 07 58 07 FC 07 3B 07 FE 07 66 08 04 07 8F 07 FB 07 9D 07 FD 07 05 07 FB 08 0A 07 FE 08 14 07 FE 07 9E 07 FF 07 AA 07 FD 07 B2 07 FC 07 C9 07 FF 08 06 07 FE 08 56 07 FC 08 9C 07 FC 08 C7 07 FF 08 9A 08 00 08 4F 07 FD 08 15 07 FF 07 DA 07 FD 07 CB 07 FC 07 DB 07 FE 07 C4 07 FA 07 C7 07 FB 07 B0 07 FE 07 A7 07 FB 07 BB 07 FA 07 D4 07 FE 07 EB 08 00 08 D4 07 FC 08 2A 07 FD 08 56 07 FC 08 80 07 FB 08 9A 07 FC 08 A6 08 02 08 9E 07 FA 08 6D 07 FD 08 53 07 FD 08 5E 07 FB 08 38 07 FD 08 07 07 FE 08 15 07 FA 07 EF 07 FC 07 84 07 FE 07 65 07 FB 07 9F 07 FC 07 D4 07 FE 07 A2 07 FD 07 56 07 FC 07 22 07 FD 06 F4 07 FF 06 D0 07 FA 06 B5 07 FC 06 A8 07 FF 06 B3 08 03 06 BC 07 FC 06 C3 07 FD 06 CB 07 FE 06 F3 07 FB 07 44 07 FE 07 9F 07 FF 07 FB 07 FB 08 75 07 FC 08 AF 07 FE 08 E5 07 FE 09 70 07 FC 09 84 07 FE 09 23 07 FC 08 B3 07 FC 08 82 07 FD 08 36 07 FD 07 E5 07 FA 07 B2 07 FD 07 DA 07 FE 07 EF 07 FB 07 A0 07 FC 07 48 07 FD 07 33 07 FB 07 54 07 FC 07 89 07 FE 07 BA 07 FE 07 E3 07 FC 07 FF 07 FE 08 1A 07 FC 08 25 07 FC 08 25 07 FE 08 66 07 FC 07 17 07 FC 07 54 07 FD 07 33 07 FC 09 65 07 FC 09 5B 07 FE 09 19 07 FD 08 E7 07 FD 08 C6 07 FD 09 08 07 FC 09 18 07 FC 08 A3 07 FE 08 33 07 FF 07 FD 07 FB 07 D6 07 FD 07 D7 07 FD 07 F3 07 FC 08 04 07 FD 08 00 08 00 07 F8 07 FB 07 F5 07 FD 07 F7 07 FE 08 01 08 00 08 1E 07 FC 08 39 07 FD 08 51 07 FC 08 B0 07 FB 08 C8 07 FD 08 E0 07 FE 08 E8 07 FB 08 DC 07 FD 08 D2 07 FD 08 5C 07 FB 07 E9 07 FC 07 B6 07 FE 07 8E 07 FC 07 9D 07 FC 07 95 07 FE 07 48 07 FD 06 F4 07 FD 06 BB 07 FD 06 91 08 00 06 76 07 FB 06 6F 08 01 07 B0 07 FA 07 6A 07 FD 07 29 07 FE 06 95 07 FE 06 A5 07 FC 06 C9 07 FE 07 0A 08 00 07 80 07 FC 07 CA 07 FD 05 AD 07 01 08 2A 07 FB 08 22 07 FE 08 28 08 01 08 1C 07 FC 08 1B 07 FD 08 28 07 FF 07 AF 07 FC 07 D3 07 FD 08 35 07 FE 08 73 07 FA 08 6D 07 FC 08 5A 07 FD 08 5B 07 FC 08 A3 07 FC 08 56 07 FD 08 5B 07 FE 08 60 07 FB 08 65 07 FD 08 65 07 FD 08 5C 07 FC 08 DC 07 FD 08 2A 07 FD 08 60 07 FA 08 9E 07 FD 08 D1 07 FF 08 F4 07 FB 08 CF 07 FD 08 5B 07 FD 08 3F 07 FB 08 73 07 FD 08 63 07 FE 08 36 07 FB 08 8A 07 FC 08 87 07 FD 08 42 07 FC 07 F1 07 FD 07 93 07 FE 07 7B 07 FC 07 83 07 FC 07 87 07 FE 07 93 07 FC 07 A1 07 FC 07 B6 07 FF 07 C9 08 01 07 D5 07 FD 07 D8 07 FD 07 EC 08 01 08 49 07 FC 08 C3 07 FD 08 CE 07 FD 08 BD 07 FC 08 83 07 FD 08 3A 07 FE 08 03 07 FC 07 E2 07 FD 07 CC 07 FF 07 DB 07 FB 08 10 07 FD 08 73 08 00 08 4A 07 FA 07 C3 07 FD 07 65 07 FD 07 42 07 FB 07 48 07 FC 07 58 07 FE 07 69 07 FB 07 7B 07 FC 07 7E 07 FE 07 8A 08 02 07 A0 07 FB 07 AB 07 FD 07 AE 07 FB 08 14 07 FB 07 9D 07 FE 08 CC 07 FC 08 9E 07 FC 08 91 07 FF 08 AE 08 00 08 C8 07 FC 08 55 07 FC 08 2E 07 FD 08 21 07 FD 08 58 07 FE 08 47 07 FC 07 EC 07 FC 07 84 07 FF 07 46 07 FC 07 59 07 FA 07 9C 07 FE 07 D4 07 FF 08 09 07 FB 08 23 07 FC 08 16 07 FF 08 07 08 00 08 15 07 FC 08 2A 07 FD 08 29 07 FE 08 43 07 FB 08 7B 07 FC 08 42 07 FE 08 1A 07 FF 08 18 07 FC 08 09 07 FE 07 BD 08 03 07 55 07 FB 07 34 07 FD 07 3E 08 03 06 FC 07 FB 06 97 07 FC 06 41 07 FD 06 35 07 FD 06 4A 07 FC 06 5A 07 FE 06 64 07 FD 06 6E 07 FB 06 78 07 FD 07 6F 07 FC 06 D0 07 FC 07 05 07 FD 07 44 08 00 07 A1 07 FB 08 11 07 FD 08 9B 08 02 09 28 07 FB 09 95 07 FC 09 A7 07 FE 09 63 07 FD 09 5D 07 FD 09 BA 07 FE 09 CE 07 FB 09 71 07 FD 08 E0 07 FE 08 CF 07 FF 09 17 07 FD 09 05 07 FD 08 A2 08 02 08 87 07 FB 08 96 07 FC 08 A4 07 FE 08 BA 07 FC 08 D3 07 FC 08 D8 07 FE 08 CD 08 03 08 BA 07 FC 08 8D 07 FE 08 49 08 03 08 3D 07 FB 08 80 07 FD 08 94 07 FE 08 6C 07 FA 08 3E 07 FC 07 F8 07 FF 07 BB 07 FC 07 51 07 FC 07 16 07 FD 07 0A 07 FB 06 D1 07 FC 06 CC 07 FD 06 AA 07 FD 08 3C 07 FF 07 ED 07 FB 07 EC 07 FC 07 49 07 FB 07 7B 07 FC 07 81 07 FF 07 83 07 FB 07 87 07 FC 07 87 07 FD 07 86 07 FB 07 7D 07 FD 07 7F 07 FE 07 A8 07 FD 08 0D 07 FF 08 40 07 FE 08 63 07 FC 08 C0 07 FC 08 C5 07 FF 08 B5 08 02 08 B4 07 FD 08 B8 07 FB 08 C7 07 FD 08 9B 07 FC 08 0A 07 FE 07 D4 08 00 07 E8 07 FA 07 C8 07 FE 07 3E 07 FD 07 73 07 FE 07 DD 07 FD 07 FE 07 FE 08 15 08 00 08 21 07 FA 08 24 07 FC 08 4C 07 FF 07 97 07 FE 08 4B 07 FC 08 61 07 FE 08 51 08 01 08 9B 07 FB 08 E6 07 FD 08 B1 08 FD 08 E0 07 FC 08 9C 07 FE 08 50 07 FE 08 4C 07 FB 08 14 07 FC 07 F3 08 02 07 DD 07 FA 07 A8 07 FC 07 77 08 00 07 89 07 FC 07 B6 07 FB 07 D7 07 FE 07 DE 07 FC 07 D9 07 FC 07 D5 07 FD 07 D6 07 FD 07 DD 07 FB 07 DF 07 FD 07 DA 07 FE 07 D2 07 FB 07 F2 07 FE 08 19 07 FD 08 1C 07 FB 08 29 07 FD 08 55 07 FE 08 7D 07 FB 08 1B 07 FD 07 E2 07 FC 08 33 07 FB 08 77 07 FD 08 67 07 FF 07 EE 07 FC 07 57 07 FD 07 12 07 FD 07 2A 08 03 07 4F 07 FC 07 66 07 FF 07 78 07 FF 07 8D 07 FC 07 A6 07 FE 08 22 07 FD 08 16 07 FA 08 11 07 FD 07 F6 07 FE 07 F1 07 FB 07 FF 07 FD 08 53 07 FD 08 66 07 FB 08 6C 07 FD 08 78 07 FD 08 87 07 FB 08 92 07 FC 08 8B 07 FD 08 7E 07 FB 08 75 07 FD 08 6F 07 FE 08 27 07 FA 07 D7 07 FC 07 BC 07 FD 07 A6 07 FB 07 9D 07 FC 07 91 08 01 07 8C 07 FA 07 94 07 FC 07 A5 07 FE 07 B7 08 01 07 C9 07 FC 07 DD 07 FE 07 E4 08 02 07 DB 07 FB 07 D0 07 FD 07 ED 07 FC 08 3F 07 FC 08 8C 07 FE 08 A7 07 FD 08 58 07 FB 07 CC 07 FE 07 89 08 05 07 C0 07 FB 08 22 07 FC 08 6D 08 04 08 28 07 FB 07 82 07 FE 07 36 08 01 07 50 07 FC 07 70 07 FD 07 63 07 FD 07 9C 07 FD 07 BB 07 FD 07 C0 07 FE 07 CC 07 FE 07 D5 07 FD 07 D9 07 FE 07 E5 08 FC 08 1C 07 FC 08 04 07 FE 08 31 07 FA 08 7E 07 FC 08 72 07 FD 08 70 07 FC 08 67 07 FD 08 75 08 01 08 72 07 FB 08 75 07 FB 08 B0 07 FD 08 B8 07 FD 08 85 07 FC 08 62 07 FE 08 4A 08 02 08 24 07 FC 08 12 07 FD 08 09 08 01 07 FF 07 FB 07 F0 07 FF 07 E2 07 FE 07 D0 07 FB 07 CE 07 FD 07 D0 07 FD 07 C6 07 FC 07 B5 07 FE 08 16 07 FC 08 4D 07 FE 08 7A 08 FE 08 36 08 00 08 41 07 FD 08 5A 07 FE 08 19 07 FC 07 99 07 FD 07 58 07 FE 08 6A 07 FF 07 6C 07 FB 07 7F 07 FE 07 C7 07 FE 07 AA 07 FC 07 56 07 FD 07 9D 07 FD 07 2C 08 00 07 3C 07 FB 07 61 07 FE 07 89 07 FD 07 A4 07 FC 07 AB 07 FD 07 B1 07 FE 07 BB 07 FB 07 C5 07 FC 07 FB 07 FE 08 2A 07 FC 08 5B 07 FB 08 D1 07 FC 09 44 07 FD 09 49 07 FB 08 ED 07 FD 08 6C 07 FE 08 34 07 FA 08 48 07 FD 08 4D 07 FD 08 5E 07 FC 08 53 07 FC 07 F7 07 FE 07 A2 07 FC 07 88 07 FC 07 98 07 FD 07 AB 07 FE 07 B7 07 FB 07 C0 07 FC 07 44 07 FF 07 C3 07 FC 07 C8 07 FD 07 D6 07 FE 07 D7 08 01 07 F3 07 FD 08 22 07 FE 08 53 07 FF 08 88 07 FD 08 6C 07 FE 08 95 07 FE 08 C5 07 FB 08 C0 07 FD 08 B2 07 FF 08 89 07 FB 08 81 07 FC 08 6E 07 FF 07 EC 07 FB 07 5C 07 FC 07 7B 07 FE 07 91 07 FB 07 BB 07 FC 07 D4 07 FF 07 D7 08 02 07 CE 07 FC 07 C3 07 FE 07 C4 07 FC 07 DA 07 FC 07 E8 07 FC 07 DB 08 01 07 77 08 00 07 90 07 FC 07 D4 08 02 07 B9 07 FA 07 90 07 FD 07 BF 07 FD 08 1F 07 FB 08 23 07 FC 08 10 07 FD 08 10 07 FD 08 4A 07 FB 08 62 07 FE 07 F9 07 FB 08 FB 07 FD 08 A0 07 FE 08 17 07 FB 07 BA 07 FD 07 A2 07 FD 07 B4 07 FF 07 A6 07 FA 07 A6 07 FE 07 B7 08 00 07 D3 07 FB 07 EE 07 FD 08 09 07 FF 08 1D 07 FA 08 49 07 FD 08 A4 07 FF 08 AB 07 FC 08 51 07 FD 08 39 07 FE 08 39 07 FE 08 2B 07 FC 08 5E 07 FF 08 71 07 FE 08 37 07 FC 08 73 07 FE 08 D6 07 FA 08 CF 07 FC 08 64 07 FE 08 07 07 FC 07 F2 07 FC 08 03 07 FD 08 0F 08 03 08 07 07 FB 08 03 07 FD 08 03 07 FE 08 07 07 FB 08 07 07 FC 07 EE 07 FE 07 07 07 FD 08 3B 07 FC 08 69 07 FE 08 76 07 FB 08 48 07 FC 08 57 07 FD 08 6F 07 FF 08 B2 07 FB 08 D0 07 FE 08 C4 07 FF 08 BC 07 FB 08 47 07 FC 07 B6 07 FE 07 5B 07 FF 07 37 07 FC 07 46 07 FE 07 47 08 02 07 31 07 FC 07 16 07 FD 06 FC 07 FC 06 DF 07 FC 06 B3 07 FE 06 90 07 FD 06 86 07 FC 06 95 07 FD 06 7C 07 FB 06 64 07 FC 06 B9 07 FD 07 47 07 FF 07 85 07 FC 07 58 07 FE 07 01 07 FE 06 F9 07 FB 07 B3 07 FD 08 A5 08 00 09 42 07 FB 09 1A 07 FD 08 AD 07 FF 08 51 07 FB 08 3E 07 FD 08 8B 07 FF 08 F6 07 FF 09 53 07 FD 09 90 07 FD 07 DE 07 FE 07 DF 07 FC 09 45 07 FE 09 00 08 02 08 B3 07 FC 08 75 07 FE 08 60 07 FB 08 55 07 FD 08 5B 07 FD 08 7D 08 00 08 75 07 FB 07 D2 07 FD 07 6A 08 03 07 4D 07 FD 07 25 07 FE 07 1A 07 FF 07 58 07 FB 07 9B 07 FD 07 A1 07 FE 07 62 07 FB 07 05 07 FC 06 FA 07 FF 07 38 07 FC 07 8A 07 FC 07 AF 07 FE 07 A1 07 FF 07 84 07 FB 07 88 07 FE 07 A1 08 03 07 C8 07 FA 07 EB 07 FC 08 0E 07 FE 08 3C 07 FD 08 71 07 FC 08 77 07 FE 08 4B 07 FD 08 0E 07 FC 08 29 07 FE 08 6E 07 FD 08 58 07 FC 07 E5 07 FC 07 E8 07 FE 08 1B 07 FC 07 F3 07 FD 08 EE 07 FD 08 04 07 FC 07 E8 07 FB 07 B3 07 FD 07 97 07 FF 07 A6 07 FB 07 D9 07 FD 08 15 08 01 08 49 07 FA 08 5E 07 FC 08 64 07 FE 08 55 07 FB 08 6D 07 FC 08 E6 07 FF 09 17 08 00 09 02 07 FC 08 D0 07 FE 08 BE 07 FC 08 D2 07 FC 08 B6 07 FF 08 9D 08 02 08 79 07 FB 08 32 07 FE 07 FA 07 FE 07 FB 07 FB 07 EC 07 FD 07 BE 07 02 07 AC 07 FB 07 B9 07 FD 07 C0 07 FE 07 C9 07 FC 07 D2 07 FC 07 D9 07 FE 07 D8 07 FF 07 D2 07 FB 07 C6 07 FE 07 BB 07 FE 07 F1 07 FB 08 07 07 FC 08 22 07 FE 08 48 07 FC 08 65 07 FB 08 5C 07 FC 08 40 07 FD 08 1D 07 FC 07 FE 07 FE 07 F8 07 FC 08 05 07 FB 07 EE 07 FD 07 9B 07 FF 07 35 07 FA 07 09 07 FD 07 13 07 FE 07 3F 07 FA 07 66 07 FC 07 7F 07 FE 07 94 08 00 07 A6 07 FB 07 B6 07 FE 07 CB 07 FB 07 DA 07 FC 07 F0 07 FE 07 FC 08 02 08 23 07 FC 08 5E 07 FE 08 60 08 01 08 5E 07 FB 08 84 07 FE 08 A5 07 FD 08 3C 07 FC 07 D5 07 FD 07 CC 08 02 07 DE 07 FB 07 F1 07 FD 07 EB 07 FF 07 CF 07 FB 07 B5 07 FE 07 F7 07 FE 07 D4 07 FC 07 F0 07 FE 08 00 08 00 08 06 07 FC 08 09 07 FD 08 FF 07 FE 07 FD 07 FC 07 E1 07 FE 07 E9 07 FD 08 17 07 FC 08 4A 07 FD 08 8E 08 00 08 B1 07 FC 08 96 07 FD 08 49 07 FF 08 1C 07 FA 08 0B 07 FC 07 E2 07 FE 07 AD 07 FB 07 9B 07 FC 07 AC 07 FE 07 A7 07 FD 07 4C 07 FC 07 19 07 FE 07 48 07 FB 07 96 07 FC 07 C2 07 FE 07 D0 07 FB 07 D9 07 FB 07 E3 07 FE 07 EC 08 00 07 F9 07 FC 08 04 07 FE 08 0C 07 FE 08 30 07 FC 08 3E 07 FD 08 64 07 FF 08 A8 07 FC 08 D3 07 FE 08 C1 08 03 08 89 07 FB 08 79 07 FE 08 81 07 FE 08 6E 07 FC 08 2C 07 FD 07 DC 07 FC 07 C2 07 FD 07 BD 07 FB 07 6E 08 01 07 BA 07 FC 07 A3 07 FF 07 91 07 FE 07 8A 07 FC 07 91 07 FD 07 A1 08 01 07 A8 07 FB 07 AC 07 FC 07 AA 07 FD 07 9A 07 FC 07 7A 07 FE 07 96 07 FC 07 AE 07 FC 07 A0 07 FD 07 CF 07 FD 07 F6 07 FB 07 EE 07 FB 07 D1 07 FD 07 C9 07 FA 07 E9 07 FD 08 52 07 FF 08 C8 07 FB 08 A7 07 FC 07 08 08 04 07 79 07 FA 07 53 07 FD 07 69 07 FE 07 8C 07 FA 07 A2 07 FC 07 BD 08 02 07 DE 07 FB 08 11 07 FD 08 47 07 FE 08 62 07 FB 08 62 07 FD 08 82 07 FE 08 EC 07 FB 09 61 07 FC 08 93 07 FE 08 84 07 FD 09 AF 07 FD 09 81 07 FF 09 44 08 00 09 0C 07 FD 08 C1 08 00 08 95 07 FC 08 49 07 FE 07 B9 08 01 07 42 07 FB 07 16 07 FD 07 04 08 05 06 DC 07 FB 06 A3 07 FE 06 6A 08 04 06 39 07 FB 06 2E 07 FD 06 45 08 00 06 6D 07 FB 06 A0 07 FD 06 CD 07 FE 06 E8 07 FA 07 42 07 FC 07 C3 07 FE 08 2A 08 00 08 75 07 FC 08 62 07 FE 08 5B 07 FE 08 64 07 FB 08 71 07 FE 08 D0 07 FD 08 D2 07 FB 08 60 07 FD 07 FA 07 FB 07 A5 07 FC 07 6D 07 FD 07 82 07 FC 07 B8 07 FC 07 B7 07 FD 08 17 07 FB 08 29 07 FC 08 30 07 FF 08 39 07 FA 08 38 07 FE 08 79 07 FC 07 83 07 FB 07 DA 07 FD 08 11 08 01 08 24 07 FB 08 2F 07 FE 08 56 08 01 08 E0 07 FD 07 F5 07 FE 09 48 08 03 09 11 07 FC 08 B1 07 FE 08 C6 07 FF 08 F9 07 FD 09 36 07 FE 08 E5 08 00 08 4B 07 FC 07 D0 07 FF 07 AB 07 FD 07 C8 07 FC 07 F7 07 FE 08 0C 08 00 08 08 07 FD 07 EE 07 FD 07 D0 08 FD 08 14 07 FC 07 B6 07 FE 07 8B 08 03 07 74 07 FB 07 AD 07 FC 07 C8 08 02 07 7B 07 FA 07 0E 07 FC 06 88 07 FE 06 3A 07 FF 06 1A 07 FD 06 21 07 FD 07 E0 07 FB 07 58 07 FC 07 AD 07 FE 07 DC 08 02 07 F7 07 FD 08 1C 07 FF 08 38 08 FB 07 A5 07 FD 08 48 07 FE 08 35 07 FC 08 1D 07 FC 08 0A 08 00 08 07 07 FD 08 07 07 FC 08 30 07 FE 08 91 07 FD 08 F7 07 FD 09 18 07 FE 09 01 08 00 08 F8 07 FC 08 EB 07 FE 08 D7 08 02 08 83 07 FC 08 53 07 FD 08 74 07 FD 08 57 07 FD 08 2B 07 FE 07 FF 07 FD 07 DD 07 FC 07 EB 07 FF 07 F4 08 02 07 FA 07 FC 07 F7 07 FF 07 E0 07 FE 07 C7 07 FC 07 33 07 FD 07 D8 07 FD 07 E3 07 FB 07 E9 07 FC 08 02 07 FD 08 3C 07 FB 08 35 07 FB 08 8E 07 FD 08 BC 07 FB 08 AF 07 FD 08 63 07 FD 08 60 07 FB 08 0E 07 FD 08 2B 07 FD 08 4C 07 FC 08 4B 07 FD 08 12 07 FD 07 89 07 FB 07 3C 07 FD 07 3C 07 FE 07 5D 07 FC 07 82 07 FD 07 9D 07 FF 07 AA 07 FB 07 B3 07 FD 07 C0 07 FE 07 C9 08 00 07 DA 07 FD 07 E0 07 FF 07 D9 07 FC 07 E9 07 FE 08 4D 08 00 08 C0 07 FC 09 17 07 FE 08 EF 07 FE 08 81 07 FE 08 0B 07 FC 07 CD 07 FE 07 EA 07 FD 07 CC 07 FC 07 DD 07 FE 07 FE 07 FC 07 B3 07 FC 07 74 07 FC 07 85 07 FB 07 9D 07 FB 07 AE 07 FD 07 C1 07 FC 07 C3 07 FA 07 C8 07 FC 07 D0 07 FC 07 FF 07 FC 08 09 07 FE 07 C2 07 FE 07 AB 07 F9 07 CA 07 FC 08 1F 07 FD 08 5A 07 FB 08 45 07 FB 08 22 07 FC 08 5E 07 FE 08 43 07 FB 08 06 07 FC 07 F7 07 FC 07 ED 07 FD 08 26 07 FD 07 C4 07 FE 07 BB 07 FD 07 A1 07 FD 07 9A 07 FD 07 BC 07 FC 07 E3 07 FE 07 FB 07 FF 08 05 07 FB 08 0A 07 FE 08 14 07 FE 08 20 08 02 08 2A 07 FD 08 29 08 00 08 2A 07 FF 08 2B 07 FC 08 48 07 FF 08 7C 07 FD 08 74 07 FC 08 80 07 FE 08 74 08 03 08 6A 07 FB 08 4A 07 FD 08 0E 07 FE 08 06 07 FC 08 06 07 FC 07 BD 07 FE 07 F4 08 01 07 6D 07 FB 07 71 07 FE 07 84 07 FF 07 B8 07 FB 07 D4 07 FC 07 DC 07 FC 07 DF 07 FA 07 E1 07 FB 07 DB 07 FD 07 BF 07 FA 07 B3 07 FC 07 9E 07 FD 07 8B 07 FB 07 DE 07 FB 08 47 07 FD 08 59 07 FA 07 FF 07 FC 07 F3 07 FE 07 D0 07 FB 07 C5 07 FC 07 E0 07 FE 07 D4 07 FD 07 CC 07 FC 07 F2 07 FF 07 F8 07 FC 07 D3 07 FC 07 AF 08 00 07 A9 07 FC 07 BC 07 FD 07 DD 07 FD 08 05 07 FD 08 29 07 FC 08 4D 07 FF 08 6D 07 FF 08 80 07 FD 08 81 08 00 08 74 07 FC 08 82 07 FD 09 06 07 FE 09 55 07 FE 08 2E 07 FC 08 EC 07 FE 08 B9 08 00 08 BD 07 FC 08 82 07 FD 08 31 08 01 08 28 07 FE 08 6C 07 FD 08 16 07 FE 07 62 07 FB 06 EA 07 FC 06 E0 07 FD 07 00 07 FA 07 A4 07 FC 06 FD 07 FD 07 07 07 FB 07 27 07 FC 07 46 07 FD 07 43 07 FB 07 36 07 FB 07 2F 07 FD 07 21 07 FC 07 17 07 FC 07 54 07 FD 07 D2 08 00 08 6C 07 FC 09 00 07 FD 09 1B 07 FE 09 15 07 FB 09 10 07 FD 08 E0 07 FE 08 7F 07 FC 08 57 07 FD 08 14 08 00 07 D5 08 03 07 DE 07 FD 07 D7 07 FF 07 A8 07 FD 07 9F 07 FD 07 B0 07 FF 07 C0 07 FD 07 C5 07 FC 07 EE 07 FE 07 F5 08 02 07 FC 07 FB 07 F5 07 FE 07 E3 07 FD 07 EE 07 FC 07 E3 07 FE 08 BC 07 FD 08 C4 07 FC 08 9A 07 FD 08 74 07 FF 08 77 07 FC 08 E6 07 FE 09 72 07 FC 09 A8 07 FC 09 C3 07 FD 09 BC 08 00 09 1E 07 FB 08 8D 07 FE 08 6D 07 FC 08 5D 07 FB 08 3B 07 FD 07 FC 08 01 07 B0 07 FA 07 6A 07 FD 07 29 07 FE 06 F4 07 FF 06 B2 07 FB 06 62 07 FE 05 EA 07 FF 05 B2 07 FC 05 CA 07 FD 05 AD 07 FF 05 93 07 FB 05 88 07 FD 05 8D 07 FF 05 DB 07 FB 06 78 07 FD 07 3B 07 FF 07 AF 07 FC 07 D3 07 FC 08 31 07 FF 07 C3 07 FC 08 33 07 FC 08 2C 07 FF 08 66 08 00 08 A3 07 FC 08 C2 07 FE 08 C7 07 FD 07 9F 07 FD 08 C1 07 FD 08 BE 07 FF 08 C6 07 FC 08 DC 07 FD 08 E3 07 FE 09 20 07 FD 09 64 07 FC 09 7A 07 FE 09 45 07 FE 08 E3 07 FC 08 DC 07 FD 08 F8 07 FC 09 06 07 FC 08 C4 07 FD 08 96 07 FC 08 8A 07 FB 07 D6 07 FC 08 42 07 FC 07 F1 07 FC 07 DA 07 FD 08 02 07 FB 08 23 07 FB 08 29 07 FD 08 1D 08 01 08 0E 07 FB 07 FA 07 FD 07 D7 07 FD 07 BA 07 FB 07 AD 07 FC 07 BA 07 FD 07 D2 07 FC 07 E5 07 FD 08 2B 07 FF 08 C5 07 FB 08 59 07 FE 08 08 07 FE 07 F2 07 FB 07 F8 07 FE 08 15 07 FE 08 1B 07 FC 08 30 07 FC 08 56 07 FE 08 47 07 FD 07 E9 07 FD 07 74 07 FD 07 0D 07 FF 06 F7 07 FC 07 0F 07 FE 07 2F 08 01 07 4A 07 FC 07 65 07 FF 07 6B 08 01 07 5E 07 FC 07 52 07 FD 07 3E 08 00 07 51 07 FB 07 9D 07 FC 07 9D 07 FE 08 06 07 FB 08 83 07 FD 08 AA 08 02 08 7D 07 FB 08 55 07 FC 08 2E 07 FD 08 21 07 FA 08 4D 07 FC 08 3C 08 03 07 E4 07 FA 07 AB 07 FE 07 A7 07 FC 07 DC 07 FA 08 04 07 FC 08 09 08 04 07 FC 07 F9 07 F7 07 FC 07 AC 07 03 08 04 07 FA 08 05 07 FC 08 02 07 FD 07 EB 07 FB 08 15 07 FC 08 86 07 FE 08 36 07 FA 08 EB 07 FD 08 C8 08 01 08 71 07 FB 08 39 07 FE 08 4D 07 FD 08 59 07 FB 07 F8 07 FD 08 3D 07 FE 08 6A 07 FC 07 F6 07 FD 07 50 08 02 07 7F 07 FB 07 2F 07 FE 07 65 08 02 07 76 07 FC 07 78 07 FD 07 6F 07 FF 07 5C 07 FD 07 35 07 FD 07 22 07 FF 07 2E 07 FC 07 53 07 FD 07 9F 07 FD 08 44 07 FB 08 3A 07 FC 08 3A 07 FF 08 33 08 00 07 F0 07 FC 08 09 07 FE 08 33 07 FE 08 46 07 FC 08 30 07 FD 08 58 07 FB 08 91 07 FB 08 60 07 FB 07 A8 07 FD 07 9D 08 03 07 9D 07 FC 07 B7 07 FC 07 CA 08 04 07 35 07 FD 08 23 08 01 08 1D 07 FB 08 17 07 FE 08 15 08 03 08 22 07 FB 08 27 07 FE 08 3E 08 02 08 83 07 FB 08 82 07 FC 08 8F 07 FF 08 C0 07 FE 08 7A 07 FD 08 5A 08 04 08 38 07 FB 08 0B 07 FD 08 17 08 01 08 0E 07 FC 08 E9 07 FB 08 16 07 FD 07 ED 07 FB 07 69 07 FD 07 28 07 FF 07 37 07 FE 07 5E 07 FE 07 77 07 FE 08 83 07 FC 07 8B 07 FC 07 9F 07 FF 07 BC 07 FE 07 E3 07 FD 08 06 07 FF 08 2B 07 FB 08 52 07 FD 08 8D 07 FE 08 CD 07 FC 08 F2 07 FD 08 E2 07 FD 08 AD 07 FB 08 60 07 FB 08 13 07 FE 08 0A 07 FD 07 EF 07 FB 07 89 07 FC 07 2C 07 FF 07 3B 07 FA 07 3E 07 FD 07 73 07 FD 07 7E 07 FB 07 60 07 FC 07 25 07 FE 07 46 07 FE 07 14 07 FC 07 4C 07 FF 07 97 07 FE 07 DC 07 FD 07 EC 07 FE 07 F6 07 FE 08 06 07 FC 08 68 07 FE 08 C6 07 FD 08 E0 07 FC 08 9C 07 FE 08 50 08 00 08 25 07 02 08 A3 07 FC 08 0B 07 FE 08 8E 07 FC 08 CA 07 FE 08 77 08 00 07 FA 07 FC 07 A2 07 FC 07 DD 07 FD 07 8C 07 FD 07 AA 07 FF 07 CD 08 00 07 E6 07 FD 07 F2 07 FE 07 BF 07 FE 07 AC 07 FD 07 A9 07 FC 07 0D 07 FC 08 19 07 FD 08 5C 07 FE 08 6F 07 FD 08 7D 07 FD 08 B6 07 FE 08 A9 07 FD 08 7E 07 FC 08 89 07 FE 08 B7 07 FC 08 9B 07 FD 08 21 07 FE 07 D1 07 FA 08 07 07 FC 07 FC 07 FD 07 C5 07 FB 07 B4 07 FD 07 D7 08 01 08 09 07 FA 08 26 07 FD 08 22 07 FD 08 16 07 FA 08 11 07 FD 08 05 08 03 07 F5 07 FC 07 E1 07 FD 07 F0 08 02 08 10 07 FC 08 6F 07 FD 08 81 07 FD 07 CA 07 FC 07 2B 07 FE 06 F8 07 FC 07 19 07 FD 08 62 07 FC 08 45 07 FE 07 18 07 FC 06 F3 07 FD 07 01 07 FD 07 1E 07 FB 07 56 07 FE 07 97 07 FD 07 B0 07 FF 07 E7 07 FC 08 1E 07 FE 08 46 08 01 08 66 07 FD 08 7B 07 FD 08 78 07 FE 08 6F 07 FC 08 5C 07 FD 08 55 07 FF 08 72 07 FA 08 D7 07 FD 08 EF 07 FE 08 88 07 FB 08 1D 07 FC 08 5C 07 FE 08 A1 07 FC 08 8A 07 FC 08 55 07 FE 08 2A 07 FA 07 F7 07 FD 07 BC 08 03 07 63 07 FB 07 38 07 FD 07 63 07 FD 07 9C 07 FD 07 BE 07 FC 07 CA 07 FE 07 D5 07 FA 07 E3 07 FB 07 F4 07 FE 08 0A 07 FC 08 1C 07 FC 08 20 07 FD 08 2A 07 FA 08 3F 07 FC 08 9C 07 FC 08 9D 07 FD 08 A4 07 FE 08 B5 07 FC 08 05 07 FB 07 D3 07 FD 07 D0 07 FE 07 DD 07 FB 07 C8 07 FD 07 9F 07 01 07 39 07 FB 07 78 07 FD 07 71 07 FC 07 7B 07 FB 07 84 07 FD 07 87 07 FF 07 90 07 FB 07 EC 07 FD 07 EC 07 FD 07 EE 07 FC 08 0F 07 FE 08 14 07 FD 08 16 07 FC 08 4D 07 FE 08 11 08 01 08 B6 07 FC 08 D0 07 FD 08 8C 07 FD 08 40 07 FC 08 1A 07 FE 08 35 07 FE 08 6A 07 FC 08 6A 07 FE 08 15 07 FE 07 E9 07 FB 07 DE 07 FD 07 D9 07 FE 07 9D 07 FD 07 9C 07 FC 07 9E 07 FD 07 A4 07 FC 07 A1 07 FC 07 B2 07 FD 07 9C 07 FB 07 CC 07 FB 07 CB 07 FD 07 AE 07 FB 07 AF 07 FB 07 E7 07 FE 08 1D 07 FC 08 4B 07 FC 08 63 07 FC 08 9C 07 FE 08 92 07 FB 08 4F 07 FC 08 46 07 FE 08 17 08 00 07 D6 07 FC 07 CA 07 FE 07 DD 07 FD 07 D3 07 FB 07 B9 07 FE 07 A2 07 FB 07 93 07 FD 07 BC 07 FD 07 F9 07 FE 08 2B 07 FD 08 44 07 FE 08 4E 07 FD 08 4D 07 FC 08 55 07 FD 08 5D 07 FD 08 5A 07 FB 08 4C 07 FD 08 7A 07 FE 08 B9 07 FC 08 7C 07 FD 08 07 08 02 07 F0 07 FA 08 02 07 FE 07 E6 07 FE 07 F4 08 00 07 F5 07 FD 07 F2 07 FE 07 AF 07 FC 07 5C 07 FC 07 2C 07 FE 08 1B 07 FB 07 A7 07 FC 07 7F 07 FE 07 8D 07 FB 07 A9 07 FA 07 7E 07 FC 07 7B 07 FD 07 76 07 FB 07 7E 07 FC 07 7E 07 FD 07 77 08 00 07 90 07 FB 07 DF 07 FE 08 3F 07 FB 08 4E 07 FC 08 46 07 FF 08 4A 07 FA 08 20 07 FD 07 7F 07 FD 07 22 07 FE 07 6C 07 FC 08 60 07 FF 08 EC 07 FB 08 FB 07 FD 08 A0 07 FE 08 17 07 FB 07 BA 07 FD 07 A2 07 FD 07 AE 07 FC 07 B3 07 FC 07 B4 07 FE 07 C5 07 FC 07 EB 07 FC 08 14 07 FF 08 27 08 03 08 2B 07 FC 08 85 07 FD 08 EC 07 FF 08 F2 07 FB 08 B2 07 FE 08 8F 07 FD 08 01 07 FB 08 88 07 FE 08 5B 07 FD 08 51 07 FC 08 46 07 FC 08 1D 08 02 08 2B 07 FA 08 47 07 FC 08 0E 07 FD 07 D0 07 FD 07 B6 07 FC 07 B2 07 FD 07 BB 07 FC 07 C4 07 FB 07 CE 07 FD 07 D6 07 FE 07 DF 07 FB 07 F4 07 FC 08 03 07 FE 08 07 07 FD 08 3B 07 FC 08 59 07 FE 08 65 07 FF 08 97 07 FC 08 B7 07 FD 08 5A 07 FE 07 E0 07 FB 07 85 07 FC 07 A0 07 FE 07 EA 07 FB 07 B0 07 FD 07 76 07 FE 07 76 07 FD 07 64 07 FC 07 2D 07 FF 06 F9 07 FB 06 F4 07 FC 07 2F 07 FE 07 7F 07 FC 08 6B 07 FE 08 7F 07 FE 07 FE 08 00 08 06 07 FC 07 FB 07 FE 07 E6 07 FC 08 2D 07 FC 08 96 07 FD 08 D6 07 FD 08 F5 07 FC 08 92 07 FC 08 53 07 FE 08 9F 07 FC 07 C7 07 FC 08 5C 07 FE 08 49 07 FC 08 86 07 FB 08 4A 07 FD 07 AF 07 FF 07 3D 07 FA 07 43 07 FC 07 93 07 FD 07 D2 07 FD 07 E3 07 FD 07 DE 07 FF 07 DF 07 FC 07 E5 07 FB 07 E1 07 FD 07 D8 08 00 07 D3 07 FA 07 CF 07 02 08 21 07 FD 08 73 07 FB 08 74 07 FB 08 7B 07 FE 08 AF 07 FF 08 CD 07 FC 08 B0 07 FD 08 93 08 00 08 A7 07 FC 08 71 07 FE 08 31 07 FF 07 EB 07 FC 07 C4 07 FC 07 AB 07 FE 07 6E 07 FB 07 26 07 FC 07 1A 07 FD 07 28 08 00 07 3A 07 FA 07 43 07 FC 07 41 07 FE 07 47 07 FE 07 43 07 FC 07 4E 07 FD 07 83 07 FE 07 95 07 FB 07 BC 07 FD 08 27 07 FD 08 88 07 FC 08 A7 07 FC 08 82 07 FE 08 A2 07 FE 08 92 07 FC 08 58 07 FF 08 45 07 FE 07 F4 07 FD 07 DA 07 FD 08 38 07 FC 08 4C 07 FC 08 2C 07 FF 08 18 08 01 08 10 07 FC 08 15 07 FF 08 1B 07 FB 08 1D 07 FD 08 17 07 FE 08 0D 07 FB 08 00 07 FC 07 F2 07 FF 07 E1 07 FC 07 D6 07 FC 08 11 07 FD 08 2F 07 FF 08 59 07 FD 08 41 07 FE 08 13 07 FD 08 11 07 FC 08 08 07 FD 08 EB 07 FC 07 61 07 FC 07 2A 07 FE 06 E2 07 FE 06 D4 07 FB 07 04 07 FD 08 0D 08 01 07 4B 07 FA 07 93 07 FC 07 DF 07 FE 08 15 07 FD 08 32 07 FD 08 39 07 02 07 E6 07 FC 07 E8 07 FC 08 5B 07 FE 08 79 07 FA 08 80 07 FD 08 C0 07 FE 09 32 07 FA 09 51 07 FD 08 BD 07 FC 08 4A 07 FB 08 40 07 FD 08 66 07 FE 08 72 07 FB 08 4D 07 FE 08 17 07 FC 07 DF 07 FC 07 B0 07 FE 07 8F 07 FD 07 85 07 FD 07 96 07 FF 07 A3 07 FC 07 AF 07 FD 07 BD 07 FE 07 C7 07 FB 07 04 07 FD 08 08 07 FE 08 09 07 FE 08 0B 07 FD 07 ED 08 02 07 DD 07 FA 08 18 07 FD 08 7E 07 FF 08 A3 07 FB 08 CF 07 FD 08 86 08 03 08 56 07 FB 08 1B 07 FD 08 0D 07 FD 08 06 07 FB 07 E4 07 FD 07 C9 08 00 07 66 07 FA 06 FE 07 FC 06 F7 07 FE 07 47 07 FA 07 91 07 FD 07 B9 07 FD 07 D3 07 FC 07 EA 07 FC 07 7C 07 FE 08 19 07 FC 08 21 07 FC 08 19 07 FE 08 32 07 FD 08 4A 07 FD 08 56 08 04 08 86 07 FA 08 E2 07 FD 08 CB 07 FF 08 65 07 FB 08 08 07 FD 08 17 08 03 08 12 07 FC 08 15 07 FE 08 1A 07 FF 07 FF 07 FC 07 A4 07 FC 07 8C 08 02 07 28 07 FC 07 7A 07 FD 07 C4 07 FE 07 DC 07 FC 07 E4 07 FE 08 E9 07 FC 07 EA 07 FC 07 F0 07 FE 07 F5 07 FB 08 11 07 FD 08 17 07 FE 08 15 08 01 08 51 07 FC 08 74 07 FE 08 8F 07 FB 08 9B 07 FD 08 69 07 FE 08 4A 07 FE 08 45 07 FD 08 3B 07 FE 08 2A 08 02 08 47 08 01 08 C2 07 FD 07 BD 07 FB 07 6E 07 FD 07 43 08 00 07 57 07 FA 07 7B 07 FD 07 8F 07 FE 07 99 07 FB 07 A1 07 FD 07 A3 07 FE 07 AA 07 FB 07 BB 07 FD 07 C3 08 01 07 CE 07 FB 08 22 07 FE 08 5D 08 FD 08 48 07 FB 08 79 07 FD 08 80 07 FF 08 4A 07 FB 08 4F 07 FD 08 AE 07 FC 08 A1 07 FB 08 63 07 FD 08 34 07 FF 08 0E 07 FC 07 DB 07 FC 07 AD 07 FC 07 AE 07 FB 07 CF 07 FE 07 E4 08 01 07 E3 07 FC 07 DE 07 FE 07 E3 07 FB 07 E6 07 FC 07 EA 07 FE 07 FB 07 FD 08 0D 07 FC 07 F2 07 FE 08 0F 08 00 08 64 07 FC 08 93 07 FE 08 84 07 FB 08 8F 07 FD 07 EC 08 05 07 8F 07 FC 07 87 07 FD 07 95 08 00 07 95 07 FC 07 7C 07 FD 07 7C 07 FC 07 6B 07 FC 07 44 07 FF 07 59 07 FB 07 9F 07 FC 07 DE 07 FD 08 02 07 FF 08 12 07 FB 07 FF 07 FF 07 EB 08 FC 07 C9 07 FB 07 BF 07 FE 07 B7 08 00 07 CC 07 FB 08 19 07 FD 08 C0 07 FD 09 FB 07 FD 08 F2 07 FE 08 DB 08 01 08 EF 07 FB 08 DD 07 FE 08 C8 07 FD 08 B3 07 FC 08 7A 07 FE 08 56 07 FC 07 EF 07 FD 07 83 07 FE 07 6C 07 FB 07 81 07 FD 07 A2 07 FE 07 B7 07 FB 07 B1 07 FE 07 94 07 FD 07 77 07 FC 07 FB 07 FD 07 6D 07 FE 07 79 07 FC 07 83 07 FE 07 71 07 FE 07 91 07 FC 07 E6 07 FF 08 34 07 FC 08 13 07 FD 07 E0 07 FD 07 EB 08 01 08 21 07 FD 08 5E 07 FE 08 46 08 03 08 05 07 FD 08 5B 07 FF 08 76 07 FE 07 FB 07 FF 07 A6 07 FB 07 70 07 FC 07 40 07 FD 07 5A 07 FE 07 97 07 FB 07 CA 07 FC 07 DE 07 FD 07 E6 07 FB 08 00 07 FD 08 14 07 FD 08 1E 07 FA 08 34 07 FD 08 8C 07 FD 08 6F 07 FC 08 CC 07 FD 08 C1 07 FE 08 9D 07 FC 08 5C 07 FC 08 2D 07 FA 08 45 07 FD 08 21 07 FD 07 E0 07 FB 07 9C 07 FC 07 AD 07 FD 07 D9 07 FA 07 D3 07 FC 07 04 07 FF 07 A8 07 FB 07 A5 07 FC 07 BE 08 00 07 ED 07 FB 08 20 07 FE 08 45 08 FF 07 8E 07 FD 08 79 07 FE 08 82 08 02 08 A5 07 FC 09 02 07 FF 09 19 07 FE 09 05 07 FC 08 DC 07 FD 08 A3 08 01 08 54 07 FC 08 39 07 FC 07 C0 08 01 07 F7 07 FC 07 EB 07 FE 07 69 07 FC 06 EF 07 FC 06 D7 07 FE 06 F0 07 FA 06 F7 07 FD 06 E4 07 FD 06 CD 07 FA 06 CF 07 FE 07 C0 07 FB 07 33 07 FB 07 6F 07 FC 07 91 07 FC 07 A5 07 FB 07 BC 07 FD 07 F5 08 00 08 35 07 FB 08 8E 07 FD 08 BC 07 FB 08 AF 07 FD 08 63 07 FD 08 59 07 FC 08 2C 07 FC 08 17 07 FE 08 43 07 FB 08 7C 07 FC 08 3F 07 FF 07 D2 07 FD 07 98 07 FC 07 AA 07 FE 07 BC 07 FE 07 F2 07 FC 08 25 07 FF 08 3C 07 FC 08 40 07 FF 07 92 07 FB 07 91 07 FD 08 42 07 FE 08 45 07 FE 08 3E 07 FC 08 61 07 FD 08 6E 07 FF 08 91 07 FD 08 31 07 FE 08 6C 07 FE 08 47 07 FC 08 3C 07 FD 08 30 07 FF 07 D2 07 FC 07 84 07 FD 08 C2 07 FE 07 FF 08 01 07 DA 07 FB 07 98 07 FE 07 7E 07 FF 07 83 07 FC 07 9E 07 FD 07 BA 08 00 07 D9 07 FC 07 E6 07 FE 07 EF 07 FF 07 FF 07 FC 08 09 07 FE 07 FF 08 01 07 E4 07 FC 07 EE 07 FD 08 3B 07 FE 08 8E 07 FC 08 DB 07 FE 08 B0 08 03 08 51 07 FC 08 0D 07 FE 07 F1 07 FE 08 1F 08 03 08 44 07 FB 08 18 07 FD 08 42 07 FC 08 49 07 FE 08 06 07 FD 07 B7 07 FC 07 83 07 FE 07 74 07 FF 07 82 07 FE 07 9B 07 FE 07 A9 07 FB 07 AC 07 FD 07 AC 07 FE 07 B7 07 FD 07 C1 07 FF 08 1A 08 00 07 BD 07 FC 08 09 07 FD 08 29 07 FF 08 53 07 FC 08 62 07 FB 08 3C 07 FF 08 4A 08 00 08 5E 07 FC 08 25 07 FE 07 C0 07 FB 07 6F 07 FC 07 BB 07 FD 07 F4 08 01 07 E4 07 FB 07 BC 07 FD 07 A8 07 FB 07 BB 07 FC 07 DA 07 FD 07 C5 08 00 07 FD 07 FC 07 FF 07 FD 07 FC 07 FB 07 F7 07 FC 07 FC 07 FE 08 03 07 FE 08 03 07 FC 08 37 07 FE 08 62 07 FC 08 50 07 FC 08 67 07 FD 08 68 07 FE 08 4C 07 FB 08 0B 07 FE 08 EC 07 FC 08 15 07 FE 08 18 07 FF 07 CF 07 FD 07 5D 07 FC 07 74 07 FD 07 8B 07 FD 07 9F 07 FC 07 AB 07 FE 07 C1 07 FD 07 DE 07 FD 07 EF 07 FE 07 F7 07 FD 07 F4 07 FD 07 F2 07 FE 07 F5 07 FF 07 F6 07 FC 07 F5 07 FF 07 EB 07 FD 08 0A 07 FC 08 2E 07 FF 08 35 07 FC 08 9B 07 FE 08 29 07 FE 08 72 07 FC 08 61 07 FD 08 28 07 FE 08 6C 07 FB 08 AD 07 FD 08 84 08 00 08 67 07 FA 08 40 07 FD 07 E9 07 FD 07 A4 07 FB 07 92 07 FD 07 94 07 FC 07 96 07 FB 07 95 07 FD 07 E6 07 FB 07 E1 07 FB 07 9D 07 FC 07 8D 08 00 07 86 07 FA 07 C5 07 FD 07 E7 08 03 07 33 07 FB 07 CE 07 FC 07 E0 07 FF 07 F6 07 FC 08 3D 07 FC 08 6E 07 FE 08 7C 07 FD 08 87 07 FC 08 3E 07 FE 07 C5 07 FB 07 57 07 FC 07 13 07 FF 07 26 07 FB 07 69 07 FC 07 A7 07 FE 07 D1 07 FF 07 EC 07 FD 07 EE 07 FE 07 F5 08 02 07 FC 07 FB 07 F5 07 FE 07 E3 07 FD 07 EE 07 FC 07 E3 07 FD 07 E5 07 FE 08 14 07 FD 08 0F 07 FC 09 18 07 FE 08 30 07 FB 08 0D 07 FD 08 16 07 FD 08 4A 07 FC 08 5A 07 FC 08 3F 07 FD 08 8F 08 01 08 63 07 FB 08 14 07 FE 07 D8 07 FB 07 C5 07 FD 07 CC 07 FD 07 ED 07 FF 07 FE 07 FB 08 0B 07 FD 08 10 07 FE 08 14 07 FB 07 24 07 FE 08 3D 08 03 08 51 07 FB 08 81 07 FD 08 D8 07 FF 09 0D 07 FB 08 D1 07 FD 08 73 07 FD 08 26 07 FB 08 0E 07 FE 08 25 07 FF 08 46 07 FC 07 44 07 FE 08 23 07 FF 07 C3 07 FC 07 78 07 FE 07 46 07 FC 07 29 07 FE 07 34 07 FF 07 51 07 FF 07 77 07 FD 07 9F 07 FE 07 C1 08 00 07 D9 07 FC 07 E8 07 FE 07 EE 07 FE 07 CF 07 FB 07 B3 07 FD 07 FB 08 00 08 90 07 FD 08 D8 07 FE 09 10 07 FC 08 5A 07 FD 08 02 07 FD 08 23 08 01 08 4E 07 FC 08 A1 07 FD 08 98 07 FB 07 D6 07 FC 07 62 07 FD 07 52 07 FC 07 35 07 FC 07 23 07 FE 07 98 07 FC 07 6A 07 FC 07 A3 07 FE 07 CE 07 FD 07 EE 07 FD 07 FD 07 FE 08 0B 07 FB 08 1E 07 FB 08 2C 07 FE 08 53 07 FF 08 AA 07 FC 08 BB 07 FF 08 C5 07 FC 08 C7 07 FC 08 83 07 FE 08 51 07 FF 08 5E 07 FD 08 4F 07 FD 08 2D 07 FD 08 33 07 FC 08 02 07 FE 07 EC 07 FE 07 F2 07 FD 07 DA 07 FE 07 AA 07 FC 07 98 07 FD 07 A1 07 FE 07 B3 07 FD 07 8B 07 FD 07 C5 07 FF 07 CF 07 FB 07 D2 07 FC 07 CC 07 FE 07 B7 08 01 07 19 07 FD 07 D8 07 FE 08 67 07 FC 08 A2 07 FC 08 74 07 FE 08 16 07 FB 08 25 07 FB 08 4D 07 FE 08 3A 07 FD 08 1C 07 FD 08 1E 07 FA 08 10 07 FC 07 F6 07 FC 07 B9 07 FE 07 75 07 FB 07 55 07 FC 07 5E 07 FE 07 70 07 FE 07 86 07 FB 07 9F 07 FC 07 AC 07 FD 07 B1 07 FB 07 C3 07 FD 07 DE 07 FD 07 F0 07 FB 07 FD 07 FE 08 3E 07 FE 08 36 07 FC 08 58 07 FC 08 85 07 FF 08 8C 07 FB 08 43 07 FD 08 2A 07 FE 08 59 07 FC 08 45 07 FD 08 49 07 FF 08 0D 08 03 07 A0 07 FD 07 98 07 FE 07 78 07 FB 07 C6 07 FD 07 E9 08 03 07 F2 07 FB 07 F2 07 FE 07 F2 07 FD 07 F7 07 FC 08 03 07 FD 08 0D 07 FD 08 08 07 FB 08 1D 07 FF 08 33 07 FD 08 44 07 FC 08 94 07 FE 08 A3 07 FE 08 74 07 FD 08 60 07 FE 08 48 07 FB 08 57 07 FC 08 5A 07 FE 08 6B 07 FA 08 34 07 FD 07 D6 08 00 07 AB 07 FB 07 A8 07 FD 07 9D 08 03 07 9D 07 FC 07 B7 07 FC 07 CA 08 04 07 C3 07 FC 07 A9 07 FD 07 91 08 01 07 7F 07 FB 07 82 07 FE 07 92 07 FC 07 A9 07 FC 07 C2 07 FD 07 AA 07 FD 07 EF 07 FB 08 5E 07 FD 08 C0 07 FE 08 7A 07 FC 07 D4 07 FE 07 81 08 01 07 7F 07 FC 07 9D 07 FD 07 C0 07 FC 07 E9 07 FB 08 16 07 FD 07 FB 07 FE 07 D5 07 FC 07 D2 07 FE 07 B1 07 FB 07 DA 07 FC 07 FE 07 FE 08 10 07 FC 08 23 07 FD 08 39 07 FE 08 3F 07 FD 08 39 07 FE 08 1F 07 FF 08 2B 07 FB 08 52 07 FD 08 8D 07 FE 08 CD 07 FC 08 F2 07 FD 08 FD 07 FD 08 D5 07 FC 08 B6 07 FE 08 08 07 FF 07 93 07 FA 07 5F 07 FD 07 94 07 FF 07 6F 07 FB 07 3B 07 FE 07 F3 07 FD 07 2B 07 FB 07 1C 07 FC 07 15 07 FC 07 22 07 FC 07 46 07 FE 07 6C 07 FF 07 B6 07 FC 07 A6 07 FF 07 9C 08 00 07 95 07 FC 07 C3 07 FE 08 06 07 FC 08 48 07 FC 08 73 07 FD 08 A6 07 FD 08 D0 07 FC 08 D7 07 FF 08 C7 08 02 08 A3 07 FC 08 A3 07 FE 08 A9 07 FC 08 7C 07 FC 08 4E 07 FE 08 4A 07 FB 08 12 07 FC 07 DD 07 FE 07 D2 07 FC 07 D7 07 FD 07 D7 07 FE 07 D5 07 FA 07 D1 07 FC 07 BF 07 FE 07 AC 07 FD 07 A9 07 FC 07 D6 08 03 07 FE 07 FB 08 4C 07 FC 08 88 07 FE 08 8B 07 FB 08 5D 07 FE 08 35 07 FD 08 1E 07 FD 08 0E 07 FE 08 46 07 FD 08 46 07 FC 08 24 07 FD 08 19 07 FD 07 F6 07 FC 07 C5 07 FD 07 9A 07 FC 07 81 07 FC 07 92 07 FE 07 D8 07 FE 07 E6 07 FA 07 DD 07 FE 07 E8 08 01 07 F9 07 FD 08 0B 07 FE 08 10 07 FC 08 25 07 FB 08 30 07 FE 08 4F 07 FC 08 6F 07 FC 08 85 07 FE 08 96 08 01 08 63 07 FD 08 64 07 FD 08 72 07 FC 08 1E 07 FB 08 06 07 FD 08 00 07 FB 08 09 07 FB 08 0B 07 FE 07 A2 07 FD 07 84 07 FC 07 97 07 FD 07 B0 08 01 07 BC 07 FC 07 AB 07 FE 07 B6 07 FE 07 B3 07 FC 07 AE 07 FE 07 AB 08 00 07 96 07 FC 07 79 07 FE 07 D5 07 FE 07 EF 07 FD 07 DA 08 03 07 E3 07 FB 08 1C 07 FD 08 39 08 01 08 13 07 FB 07 C3 07 FD 08 6C 07 FE 08 3B 07 FB 08 0E 07 FD 07 CF 08 02 07 AC 07 FB 07 A6 07 FD 07 A0 08 04 07 A6 07 FB 07 DD 07 FD 07 FB 07 FE 08 1A 07 FC 08 2B 07 FE 08 30 07 FD 08 2A 07 FC 08 2B 07 FD 07 F9 07 FC 07 F8 07 FB 08 41 07 FD 08 5C 07 FF 08 80 07 FC 08 9D 07 FD 08 A4 07 FE 08 B5 07 FC 08 75 07 FE 08 81 07 FE 08 41 07 FF 07 EF 07 FB 07 DA 07 FE 07 7F 08 01 07 39 07 FD 07 97 07 FC 07 50 08 00 07 71 07 FA 07 A9 07 FD 07 D7 07 FD 07 EB 07 FB 07 EC 07 FC 07 96 07 FF 07 85 08 00 07 79 07 FC 07 DA 07 FF 07 C8 07 FB 07 D1 07 FC 08 11 07 FF 08 5D 07 FA 08 73 07 FB 07 90 07 FE 08 C3 07 FB 08 C2 07 FD 08 74 07 FE 08 18 07 FA 08 0B 07 FE 08 7A 07 FF 08 02 07 FA 07 FF 07 FD 07 D9 07 FE 07 AC 07 FB 07 87 07 FC 07 F3 07 FF 07 54 07 FB 07 55 07 FD 07 74 07 FD 07 9C 07 FB 07 CC 07 FE 07 F2 08 FE 07 D7 07 FB 08 29 07 FD 08 49 07 FE 08 4C 07 FC 08 4B 07 FD 08 38 07 FE 08 0F 07 FD 08 79 07 FD 08 5E 07 FD 08 76 07 FB 08 50 07 FD 07 E1 07 FC 07 87 07 FC 07 51 07 FF 08 13 07 FD 07 EF 07 FC 07 82 07 FE 07 A9 07 FB 07 B9 07 FD 07 AE 07 FF 07 9D 08 01 07 93 07 FD 07 98 07 FE 07 A2 07 FB 07 AD 07 FC 07 C2 07 FE 07 CE 07 FB 07 C4 07 FC 08 F4 07 FD 08 5B 07 FF 08 9B 07 FC 08 CF 07 FD 08 EB 07 FB 08 BB 07 FD 08 94 07 FD 08 B5 07 FB 08 CE 07 FD 08 EB 08 04 08 DC 07 FB 08 C4 07 FE 07 E9 07 FB 08 1B 07 FB 07 A7 07 FC 07 7F 07 FE 07 8D 07 FB 07 A9 07 FC 07 B9 07 FE 07 CB 07 FC 07 D3 07 FC 07 D0 07 FE 07 CA 07 FC 07 C8 07 FD 07 0B 07 FB 08 3C 07 FC 07 F7 07 FE 08 21 07 FF 08 41 07 FB 08 3B 07 FE 08 4E 07 FE 08 51 07 FC 08 16 07 FE 08 35 07 FC 08 16 07 FD 07 A2 07 FF 07 4C 07 FC 07 39 07 FD 07 45 08 03 07 68 07 FA 07 93 07 FD 07 AB 08 03 07 94 07 FC 07 A7 07 FE 07 B1 07 FC 07 D7 07 FA 07 FC 07 FD 08 2B 08 02 08 38 07 FA 08 66 07 FD 08 B1 07 FD 08 6C 07 FD 09 51 07 FD 09 4D 08 01 09 01 07 FC 08 B8 07 FD 08 73 07 FC 08 5D 07 FE 07 D4 07 FB 07 EE 07 FE 07 7F 07 FC 07 3C 07 FE 07 44 07 FF 07 53 07 FC 07 56 07 FE 07 7B 07 FC 07 5D 07 FD 07 64 07 FF 07 63 07 FA 07 55 07 FD 07 3D 07 FC 07 3A 07 FB 07 F9 07 FE 07 EF 07 FB 07 D4 07 FC 08 04 07 FD 07 FD 07 FD 07 FB 07 FC 08 17 07 FE 08 17 07 FE 08 56 07 FC 08 46 07 FE 08 D2 07 FC 08 37 07 FC 07 B7 07 FD 07 9F 08 01 07 D0 07 FB 07 CB 07 FE 07 80 07 FD 07 AA 07 FB 07 EA 07 FC 08 24 08 03 08 55 07 FC 08 6B 07 FE 08 F6 07 FB 08 8E 07 FB 08 85 07 FE 08 6F 07 FC 08 54 07 FB 08 77 07 FF 08 7D 07 FD 08 78 07 FC 08 CF 07 FE 08 E5 07 FC 08 9D 07 FC 08 46 07 FE 07 C7 08 01 07 6C 07 FE 07 8F 07 FE 07 CD 07 FC 07 CF 07 FD 07 AF 07 FE 07 99 07 FF 07 83 08 02 07 84 07 FE 07 88 08 00 07 85 07 FC 07 8F 07 FF 07 A2 07 FC 07 BD 07 FE 07 CF 07 FF 07 DD 07 FB 07 F2 07 FD 07 FD 08 02 08 21 07 FC 08 7C 07 FE 08 8B 07 FE 08 8E 07 FB 08 A0 07 FE 08 DF 08 00 08 FF 07 FC 08 DD 07 FD 08 A4 08 00 08 4D 07 FC 08 0C 07 FD 08 02 07 FC 07 C4 07 FC 07 52 07 FF 07 1A 07 FA 07 46 07 FC 07 7F 07 FE 07 9F 07 FF 07 B2 07 FC 07 C2 07 FD 07 D4 07 FC 07 DC 07 FC 07 DD 07 FE 07 DE 07 FA 07 D6 07 FD 07 B9 07 FD 07 D0 07 FB 07 FD 07 FD 08 30 07 FD 08 5B 07 FB 08 65 07 FC 08 45 07 FD 07 FA 07 FB 07 EB 07 FE 07 F1 07 FD 08 20 07 FC 08 66 07 FF 08 3C 08 01 07 AE 07 FD 07 2A 07 FE 06 E7 07 FD 06 DA 07 FC 06 EF 07 FE 07 13 08 04 07 37 07 FB 07 66 07 FE 07 9C 07 FE 07 CA 07 FB 07 E3 07 FC 07 EA 08 04 07 F3 07 FB 08 50 07 FD 08 A9 08 05 08 C3 07 FB 08 92 07 FD 08 7D 07 FE 08 9A 07 FC 08 AF 07 FD 08 EB 08 00 08 D0 07 FA 08 62 07 FD 08 61 07 FF 08 79 07 FB 08 52 07 FE 08 0D 08 01 07 D7 07 FB 07 D6 07 FD 07 E3 07 FD 07 E6 07 FA 07 D9 07 FD 07 DC 08 02 07 E6 07 FC 07 E8 07 FD 07 E1 07 FD 07 D1 07 FB 07 CC 07 FD 08 00 07 FE 08 42 07 FC 08 51 07 FD 08 7A 07 FC 08 66 07 FB 07 EA 07 FE 07 A7 07 FD 07 BE 07 FB 08 00 07 FE 07 C3 07 FE 07 2D 07 FB 06 FE 07 FF 07 2C 08 00 07 76 07 FB 07 C7 07 FE 07 F2 07 FB 08 01 07 FC 08 03 07 FE 08 01 07 FD 08 04 07 FD 08 08 07 FE 08 09 07 FE 08 0B 07 FD 08 2E 07 FF 08 8B 07 FB 08 BD 07 FD 08 BB 07 FF 08 CC 08 02 08 CF 07 FC 08 88 07 FE 08 74 07 FF 08 72 07 FB 08 31 07 FF 07 F0 07 FB 07 EC 07 FD 08 0B 07 FE 07 D2 08 01 07 86 07 FC 07 46 07 FD 07 59 07 FB 07 82 07 FC 07 9C 07 FE 07 A0 07 FA 07 8B 07 FC 07 7C 07 FD 07 78 07 FF 07 79 07 FC 07 76 07 FE 07 9C 07 FC 07 E1 07 FB 08 43 07 FE 08 5E 08 01 08 6A 07 FC 08 60 07 FD 08 57 07 FE 08 3C 07 FC 08 07 07 FD 07 F1 08 02 08 1D 07 FB 08 34 07 FE 07 F0 07 FF 07 A4 07 FC 07 8C 07 FD 07 74 08 01 07 71 07 FC 07 8F 07 FE 07 B5 07 FD 07 DD 07 FC 08 03 07 FE 08 20 07 FD 08 28 07 FC 08 2E 07 FE 08 27 07 FC 08 34 07 FD 08 4C 07 FE 08 5E 07 FD 08 C0 07 FC 09 00 07 FE 08 DF 07 FF 08 74 07 FD 08 36 07 FE 08 5B 08 03 08 60 07 FC 08 26 07 FD 08 47 08 01 08 34 07 FB 07 FB 07 FD 07 C4 07 FE 07 B2 07 FB 07 BF 07 FC 07 B9 07 FE 07 A7 07 FD 07 91 07 FC 07 89 07 FE 07 82 07 FB 07 7E 07 FD 07 7A 07 FE 07 64 07 FD 07 74 07 FB 07 97 07 FD 07 DA 07 FD 08 48 07 FB 08 79 07 FE 08 3C 07 FC 08 01 07 FB 08 01 07 FD 08 4F 08 02 08 5C 07 FB 08 5F 07 FC 08 79 08 04 08 6C 07 FB 08 50 07 FD 08 18 07 FE 07 D0 07 FB 07 BB 07 FB 07 C6 07 FE 07 D4 07 FF 07 DA 07 FC 07 E0 07 FF 07 E5 08 00 07 ED 07 FC 07 F8 07 FF 07 FA 07 FD 08 1B 07 FD 08 1C 07 FF 07 FC 07 FF 08 27 07 FD 08 78 07 FF 08 8F 07 FC 08 4E 07 FD 08 07 07 FE 07 E0 07 FB 07 FB 07 FD 08 1C 08 03 08 0E 07 FB 07 CB 07 FC 07 B6 07 FF 07 DD 07 FB 07 F4 07 FC 07 F3 07 FC 07 E1 07 FE 07 CD 07 FC 07 C2 07 FD 07 BA 08 01 07 BE 07 FC 07 C9 07 FD 07 D1 07 FA 07 DE 07 FD 07 E1 07 FD 07 E4 07 FB 07 D8 07 FC 07 FB 07 FD 08 2F 07 FD 08 3A 07 FC 08 3B 07 FD 07 F3 07 FB 07 77 07 FC 07 41 07 FE 07 61 07 FA 07 B2 07 FD 07 AF 07 FE 07 64 07 FF 07 2B 07 FC 07 3D 07 FF 07 7E 08 03 07 B2 07 FD 07 CE 07 FE 07 DE 07 FE 07 F0 07 FC 07 FB 07 FE 08 08 07 FF 08 22 07 FC 08 39 07 FE 08 47 07 FE 08 50 07 FB 08 5A 07 FD 08 86 07 FE 08 A3 07 FC 08 B6 07 FC 08 C5 07 FE 08 8D 07 FD 08 60 07 FC 08 9E 07 FD 08 C1 07 FC 08 9E 07 FC 08 60 07 FD 07 FB 07 FF 07 A6 07 FB 07 A1 07 FD 07 CC 08 02 07 F4 07 FB 08 03 07 FC 07 FB 08 00 07 F7 07 FB 07 FB 07 FD 07 FF 08 02 08 06 07 FA 08 18 07 FD 08 25 07 FF 08 2B 07 FC 08 6F 07 FD 08 C9 07 FD 08 D2 07 FA 08 7C 07 FC 08 2F 08 04 07 F8 07 FB 07 EC 07 FD 08 04 07 FE 08 3A 07 FB 08 4A 07 FD 07 F8 07 FF 07 6B 07 FF 07 38 07 FC 07 04 07 FF 06 CC 07 FD 06 C6 07 FD 06 EA 07 FE 07 17 07 FF 07 42 07 FD 07 65 07 FF 07 8E 07 FD 07 BB 07 FC 07 D6 07 FF 07 F3 07 FC 08 2D 07 FD 08 4F 07 FF 08 B1 07 FC 08 DC 07 FD 08 A3 08 01 08 54 07 FC 08 39 07 FC 07 EE 07 FF 08 08 07 FB 08 66 07 FD 08 71 07 FE 08 2D 07 FB 08 12 07 FC 07 EF 07 FE 07 A5 07 FC 07 7B 07 FC 07 85 07 FE 07 A7 07 FE 07 C0 07 FC 07 DB 07 FD 07 F3 07 FB 08 10 07 FB 08 27 07 FD 08 1C 07 FB 08 02 07 FA 08 33 07 FD 08 8B 07 FC 08 80 07 FC 08 6D 07 FD 08 71 07 FC 08 59 07 FC 08 2C 07 FE 08 13 07 FC 07 FB 07 FC 07 D3 07 FD 07 B2 08 00 07 A0 07 FB 07 98 07 FD 07 A1 08 03 07 CE 07 FC 07 CF 07 FE 07 B4 07 FD 07 9B 07 FC 07 94 07 FF 07 92 07 FB 07 91 07 FD 07 A3 07 FF 07 C8 07 FD 07 E3 07 FD 07 FE 07 FE 08 1E 07 FB 08 29 07 FD 08 31 07 FE 08 89 07 FB 09 16 07 FE 09 68 08 00 09 36 07 FD 08 E2 07 FE 08 9B 07 FD 08 4B 07 FC 08 30 07 FD 08 12 07 FE 07 CE 07 FB 07 8F 07 FE 07 89 07 FC 07 9E 07 FB 07 A3 07 FD 07 9A 08 04 07 8C 07 FA 07 89 07 FB 07 91 07 FD 07 99 07 FB 07 9D 07 FC 07 99 08 03 07 7D 07 FB 07 7B 07 FC 07 D8 08 00 08 01 07 FB 08 14 07 FC 08 19 07 FD 08 31 07 FA 08 3D 07 FD 08 43 08 03 08 44 07 FB 08 18 07 FD 08 14 07 FE 08 3E 07 FC 08 42 07 FC 07 E6 07 FE 07 93 08 00 07 77 07 FC 07 82 07 FE 07 A0 07 FD 07 B2 07 FE 07 C9 07 FE 07 DE 07 FF 07 F8 07 FD 08 16 07 FF 08 1A 08 00 08 16 07 FC 08 3D 07 FE 08 7E 07 FE 08 A7 07 FB 08 9A 07 FD 08 A5 07 FF 08 92 07 FB 08 89 07 FD 08 34 07 FE 07 F8 07 FB 08 20 07 FD 08 2F 07 FE 08 17 07 FC 08 45 07 FD 08 4D 07 FE 08 14 07 FB 07 E0 07 FE 07 C3 07 FD 07 C5 07 FB 07 C7 07 FD 07 BB 07 FB 07 A7 07 FC 07 8A 07 FD 07 7B 07 FF 07 7B 07 FB 07 6E 07 FE 07 6B 07 FC 07 8A 07 FC 07 DA 07 FE 08 30 07 FB 08 7A 07 FD 08 7F 07 FE 08 2D 07 FF 07 EC 07 FC 08 15 07 FE 08 18 07 FF 07 CF 07 FD 07 5D 07 FF 07 29 07 FB 07 27 07 FE 07 61 07 FE 07 9A 07 FB 07 C1 07 FD 07 DE 08 05 08 07 07 FB 08 33 07 FD 08 5D 08 01 08 78 07 FA 08 76 07 FE 08 64 07 FE 08 61 07 FB 08 B7 07 FD 08 CB 07 FE 08 AB 07 FC 08 8E 07 FC 08 9B 07 FF 08 88 07 FC 08 4A 07 FD 08 23 07 FF 08 33 07 FB 08 4C 07 FD 07 E7 07 FF 07 C3 07 FB 07 C9 07 FC 07 89 07 FD 07 5E 07 FB 07 6A 07 FD 07 84 08 00 07 9F 07 FA 07 C0 07 FD 07 DA 07 FD 07 E6 07 FB 07 E1 07 FC 07 DE 08 01 07 E1 07 FA 07 B8 07 FD 07 AB 07 FD 07 E6 07 FB 08 33 07 FD 08 25 07 FD 07 E0 07 FB 07 FC 07 FC 08 21 07 FD 07 E6 07 FB 07 E2 07 FD 08 17 07 FE 07 FA 07 FB 07 DC 07 FE 08 0F 08 03 07 F2 07 FC 07 8D 07 FD 07 5C 07 FD 07 65 07 FC 07 74 07 FD 07 7D 07 FE 07 84 07 FC 07 91 07 FE 07 A6 07 FE 07 B9 07 FD 07 B2 07 FE 07 9A 08 00 07 D6 07 FD 08 62 07 FE 08 A4 07 FC 08 E9 07 FC 09 18 07 FE 08 A3 07 FC 08 2B 07 FD 08 5D 07 FE 08 A5 08 02 08 A8 07 FC 08 B2 07 FD 08 8F 08 01 08 63 07 FB 08 14 07 FE 07 D8 07 FB 07 C5 07 FD 07 CE 07 FD 07 DD 07 FB 07 D7 07 FC 07 CB 07 FE 07 BE 07 FB 07 BE 07 FB 07 CA 07 FE 07 DA 08 00 07 E5 07 FD 08 16 07 FE 08 25 07 FD 08 4B 07 FC 08 A0 07 FE 08 B2 07 FC 08 A0 07 FC 08 86 07 FE 08 17 08 01 07 DF 07 FC 07 ED 07 FE 07 99 07 FE 07 42 07 FC 07 1E 07 FD 07 36 08 00 07 50 07 FC 07 52 08 00 07 48 07 FC 07 52 07 FD 07 74 07 FF 07 A3 07 FB 07 C5 07 FD 07 E8 07 FE 08 0E 07 FB 08 38 07 FD 08 43 07 FE 08 59 07 FD 08 90 07 FD 08 D8 07 FE 09 10 07 FC 08 E0 07 FC 08 83 07 FD 08 6B 07 FB 08 6B 07 FC 08 62 07 FE 08 42 07 FF 08 34 07 FC 08 01 07 FD 07 7E 07 FB 07 5D 07 FD 07 7B 08 02 07 98 07 FC 07 AE 07 FD 07 C5 08 00 07 C8 07 FB 07 CF 07 FE 07 D5 07 FC 07 E1 07 FC 07 F5 07 FD 07 F6 07 FB 07 ED 07 FC 08 36 07 FE 08 81 07 FD 08 B1 07 FC 08 9B 07 FE 08 13 07 FE 07 D7 07 FC 08 17 07 FF 08 4F 07 FC 08 20 07 FC 07 EE 07 FE 07 C0 07 FF 07 CC 07 FC 07 BC 07 FE 07 90 08 00 07 70 07 FD 07 68 07 FE 07 63 07 FE 07 74 07 FD 07 8B 07 FE 07 A2 07 FB 07 B9 07 FD 07 C9 07 FE 07 DE 07 FB 07 F5 07 FD 08 19 08 00 08 31 07 FA 08 46 07 FD 08 6C 08 01 08 76 07 FB 08 4F 07 FD 08 03 07 FD 07 DD 07 FB 08 03 07 FC 08 4A 07 FE 08 44 07 FA 08 6F 07 FD 08 4C 08 01 07 B5 07 FB 07 4B 07 FD 07 50 08 02 07 8C 07 FC 07 CF 07 FD 07 FA 07 FD 08 12 07 FA 08 1E 07 FD 08 2F 07 FD 08 37 07 FB 08 3A 07 FD 08 39 07 FD 08 31 07 FC 08 3F 07 FD 08 8C 07 FC 08 C6 07 FC 08 BF 07 FD 08 A7 07 FD 08 70 07 FB 08 3F 07 FD 08 0D 07 FB 07 CC 07 FC 07 85 07 FD 07 51 08 01 07 66 07 FC 07 98 07 FE 07 78 07 FC 07 3A 07 FC 07 31 07 FF 07 49 07 FF 07 71 07 FC 07 96 07 FE 07 C6 07 FE 07 F4 07 FC 08 1C 07 FE 08 36 07 FC 08 44 07 FC 08 41 07 FE 08 44 07 FC 08 6F 07 FC 08 AD 07 FD 08 AF 07 FD 08 7E 07 FB 08 83 07 FE 08 6F 08 02 08 23 07 FC 08 18 07 FE 07 F7 07 FA 07 FB 07 FD 08 2E 07 FE 08 1F 07 FA 07 D4 07 FD 07 95 07 FE 07 6C 07 FC 07 63 07 FC 07 6E 07 FE 07 7E 08 02 07 8E 07 FC 07 9F 07 FE 07 B5 07 FC 07 C8 07 FB 07 CA 07 FC 07 D2 07 FF 07 FE 07 FB 08 16 07 FE 08 1E 08 00 07 E8 07 FB 07 F5 07 FC 08 10 07 FF 07 D1 07 FB 07 F4 07 FC 08 18 07 FE 07 B5 07 FA 07 97 07 FE 07 EF 07 FF 08 1C 07 FC 07 E3 07 FD 07 A2 08 01 07 B1 07 FB 07 DA 07 FC 07 F4 07 FE 07 FF 07 FA 08 02 07 FC 08 08 07 FE 08 0F 07 FD 08 19 07 FE 08 1F 07 FE 08 46 07 FD 08 A4 07 FC 08 B6 07 FE 08 DE 08 00 09 14 07 FC 08 FD 07 FD 08 D5 07 FC 08 B6 07 FE 08 6F 07 FE 08 38 07 FB 08 13 07 FD 08 01 07 FD 08 00 07 FB 07 FC 07 FE 07 F3 07 FD 07 F6 07 FC 07 E5 07 FE 07 D1 08 01 07 C7 07 FC 07 C6 07 FE 07 C3 07 FF 07 B6 07 FC 07 A6 07 FF 07 9C 08 00 07 95 07 FC 07 A0 07 FE 07 A5 08 01 07 DF 07 FB 08 2B 07 FD 08 23 07 FF 07 D5 07 FB 07 A2 07 FD 07 84 07 FD 07 A3 07 FB 07 DA 07 FE 07 FF 07 FE 08 0B 07 FC 08 0F 07 FD 08 2C 07 FE 08 08 07 FC 07 C6 07 FD 07 97 07 FB 07 93 07 FD 07 AA 07 FF 07 BF 07 FA 07 CC 07 FD 07 D6 07 FD 07 EC 07 FB 08 13 07 FD 08 1E 08 02 08 28 07 FB 08 4C 07 FC 08 88 07 FE 08 8B 07 FB 08 5D 07 FE 08 35 07 FD 08 1E 07 FD 08 0E 07 FE 08 46 07 FD 08 46 07 FC 08 24 07 FD 07 D8 08 03 07 7A 07 FC 07 54 07 FE 07 4F 07 FF 07 7E 07 FB 07 B6 07 FE 07 D8 07 FE 07 E6 07 FA 07 EA 07 FD 07 F5 08 00 08 03 07 FB 08 15 07 FC 08 12 08 01 08 16 07 FB 08 30 07 FE 08 32 08 02 08 1F 07 FC 08 4A 07 FD 08 7F 07 FC 08 7A 07 FB 08 83 07 FE 08 72 07 FC 08 1E 07 FB 08 06 07 FD 08 00 07 FB 08 09 07 FB 08 3B 07 FD 08 21 07 FB 07 D4 07 FC 07 9C 07 FD 07 97 08 00 07 9C 07 FC 07 AB 07 FE 07 B6 07 FF 07 C4 07 FD 07 CF 07 FE 07 D7 08 02 07 D7 07 FC 07 C6 07 FE 07 D5 07 FE 07 EF 07 FD 07 E6 07 FF 08 15 07 FB 08 20 07 FC 08 25 07 FE 08 66 07 FE 08 95 07 FD 08 6C 07 FE 08 3B 07 FB 08 0E 07 FD 07 DB 07 FD 07 AA 07 FB 07 A0 07 FE 07 A3 07 FE 07 B9 07 FB 07 DD 07 FD 07 F4 07 FF 07 FC 07 FB 07 F7 07 FC 07 F2 07 FE 07 F3 07 FB 07 F5 07 FD 07 F9 07 FC 07 F8 07 FB 08 04 07 FD 08 38 07 FB 08 4D 07 FC 08 4C 07 FE 08 8A 07 FC 08 8F 07 FC 08 75 07 FE 08 8A 08 00 08 90 07 FC 08 64 07 FE 08 3F 07 FE 08 33 07 FC 07 CC 07 FD 07 97 07 FB 07 98 07 FD 07 92 07 FD 07 95 07 FC 07 91 07 FD 07 93 07 FD 07 95 07 FC 07 96 07 FF 07 85 08 00 07 79 07 FC 07 7C 07 FE 07 8C 07 FD 07 9D 07 FC 07 92 07 FE 07 8C 07 FC 07 CE 07 FB 07 F7 07 FE 07 BC 07 FC 07 7B 07 FD 07 BF 07 FE 08 14 07 FA 08 4C 07 FE 08 7A 08 01 08 AB 07 FB 08 9A 07 FC 08 73 07 FD 08 41 07 FA 08 0B 07 FD 07 F3 07 FF 07 F5 07 FB 08 03 07 FD 08 00 08 01 07 FB 07 FC 07 F3 07 FD 07 E8 07 FE 07 D7 07 FC 07 B6 07 FD 07 8E 08 00 07 C4 07 FB 08 56 07 FE 08 87 07 FB 08 79 07 FD 08 79 07 FD 08 73 07 FF 08 5B 07 FC 07 F1 07 FE 07 BF 07 FF 07 E1 07 FC 07 F3 07 FF 08 13 07 FD 07 EF 07 FD 07 B7 07 FE 07 A1 07 FC 07 B8 07 FD 07 BF 07 FE 07 C6 07 FC 07 C1 07 FD 07 C2 07 FE 07 CF 07 FB 07 DE 07 FE 07 E2 07 FE 07 E9 07 FC 08 17 07 FD 08 6C 07 FC 08 73 07 FC 08 6B 07 FE 08 9F 08 01 08 A4 07 FC 08 5A 07 FE 07 EC 07 FE 07 B3 07 FD 07 E5 07 FE 08 56 07 FC 08 9E 07 FD 08 7E 07 FE 07 E9 07 FB 07 83 07 FC 07 72 07 FF 07 81 07 FA 07 9F 07 FD 07 BA 08 03 07 D2 07 FA 07 E7 07 FD 08 09 08 03 08 1F 07 FB 08 23 07 FD 08 19 07 FF 08 0B 07 FB 08 3C 07 FD 08 91 07 FE 08 C6 07 FC 08 7C 07 FE 08 61 07 FF 08 7C 07 FD 08 51 07 FE 08 0E 07 FB 07 91 07 FC 07 6A 07 FE 07 85 07 FB 07 7F 07 FC 07 83 07 FF 07 81 07 FB 07 83 07 FD 07 81 07 FE 07 84 07 FC 07 94 07 FC 07 A7 07 FE 07 B1 07 FC 07 B7 07 FD 07 C1 08 03 07 D1 07 FA 07 E0 07 FD 08 1A 07 FF 08 3F 07 FB 08 6C 07 FD 08 82 07 FF 08 7E 07 FC 08 85 07 FD 08 96 07 FD 08 70 07 FC 08 33 07 FE 07 D4 07 FB 07 E5 07 FC 08 4C 07 FE 08 49 07 FD 07 EC 07 FC 07 8A 08 00 07 65 07 FB 07 7B 07 FC 07 9A 08 01 07 AD 07 FA 07 C1 07 FD 07 DC 08 00 07 EE 07 FA 07 F3 07 FD 07 F9 07 FE 07 EF 07 FB 07 D4 07 FC 07 F1 07 FD 08 76 07 FB 08 B3 07 FC 08 7F 07 FE 08 15 07 FE 07 FD 07 FC 08 46 07 FE 08 9D 08 01 08 74 07 FC 08 25 07 FF 08 1C 08 01 08 1D 07 FC 07 DC 07 FE 07 80 08 00 07 75 07 FD 07 A5 07 FF 07 D5 07 FD 07 EF 07 FC 07 EF 07 FF 07 F6 07 FB 07 F8 07 FC 07 F6 07 FF 07 E6 07 FA 07 DE 07 FE 07 F1 08 00 08 2D 07 FD 08 78 07 FE 08 D5 07 FF 08 C2 07 FC 08 9F 07 FE 08 68 07 FD 08 0E 07 FC 07 D5 07 FE 07 F5 08 02 08 1D 07 FD 07 FA 07 FE 07 AB 08 00 07 74 07 FD 07 63 08 02 07 5A 07 FB 07 64 07 FD 07 74 08 03 07 80 07 FA 07 90 07 FD 07 9D 07 FD 07 A0 07 FB 07 9F 07 FC 07 9E 07 FE 07 9E 07 FF 07 88 07 FC 07 BB 07 FE 08 52 07 FD 08 81 07 FD 08 6B 07 FD 08 20 07 FB 07 C6 07 FD 07 F6 08 00 08 2D 07 FA 07 FA 07 FD 07 BE 08 02 07 96 07 FB 07 71 07 FD 07 91 07 FE 07 C6 07 FC 07 F3 07 FE 08 18 07 FC 08 36 07 FD 08 3D 07 FD 08 36 08 00 08 2F 07 FB 08 35 07 FD 08 42 08 03 08 49 07 FB 08 44 07 FD 08 5C 08 03 08 C0 07 FC 08 F4 07 FD 09 2B 08 00 09 08 07 FB 08 9B 07 FE 08 62 07 FE 08 38 07 FC 08 43 07 FC 08 60 07 FE 08 B8 07 FE 08 41 07 FC 07 83 08 03 07 42 07 FA 07 2F 07 FC 07 2B 08 00 07 3A 07 FB 07 43 07 FD 07 48 07 FE 07 4F 07 FB 07 60 07 FC 07 77 08 00 07 8A 07 FB 07 A4 07 FC 07 D0 08 03 08 15 07 FB 08 2A 07 FD 08 09 07 FD 08 0F 07 FC 08 4B 07 FC 08 72 07 FC 08 63 07 FB 08 3F 07 FE 08 32 07 FD 08 60 07 FC 08 B9 07 FD 08 E3 07 FE 08 BD 07 FC 08 54 07 FD 07 D0 07 FF 07 8D 07 FB 07 85 07 FE 07 8D 08 05 07 90 07 FB 07 90 07 FD 07 8B 08 04 07 8C 07 FC 07 86 07 FD 07 7F 07 FF 07 72 07 FB 07 7D 07 FD 07 A5 07 FF 08 0C 08 02 08 44 07 FD 08 0E 07 FE 07 FD 07 FD 07 DC 07 FC 07 D7 07 FF 07 EB 07 FC 08 10 07 FC 08 07 07 FE 07 B8 07 FD 07 A1 07 FC 07 CE 07 FD 07 E3 07 FF 07 FC 07 FB 08 08 07 FE 08 0B 07 FB 08 11 07 FC 08 20 07 FD 08 33 08 01 08 3D 07 FC 08 45 07 FD 08 51 07 FB 08 4C 07 FC 08 3F 07 FE 08 43 07 FA 08 64 07 FC 08 A5 08 02 08 BC 07 FA 08 92 07 FD 08 56 07 FD 08 60 07 FC 08 5F 07 FC 08 2A 07 FE 08 1F 07 FA 08 7B 07 FC 08 75 07 FF 08 08 07 FB 07 6E 07 FE 07 2B 07 FF 07 39 07 FC 07 63 07 FC 07 8B 08 02 07 9F 07 FB 07 B0 07 FC 07 BA 07 FF 07 CA 07 FB 07 EC 07 FD 07 FE 07 FE 08 13 08 02 08 6A 07 FC 08 A3 07 FF 08 D0 08 03 08 A7 07 FC 08 59 07 FF 08 8C 07 FD 08 95 07 FC 08 16 07 FD 08 01 07 FE 08 49 07 FB 08 2F 07 FD 07 C9 07 FF 07 8D 07 FB 07 7C 07 FC 07 80 08 01 07 8F 07 FB 07 9B 07 FC 07 A3 07 FD 07 B6 07 FA 07 C2 07 FC 07 D2 07 FD 07 E0 07 FA 07 E6 07 FC 07 E2 08 00 07 DF 07 FB 07 EB 07 FC 08 06 08 03 08 15 07 FA 08 19 07 FC 07 DB 08 03 07 96 07 FB 07 7E 07 FD 07 A7 08 00 07 CD 07 FC 07 CC 07 FD 07 A9 07 FC 07 86 07 FC 07 B7 07 FD 07 D7 07 FD 07 BF 07 FC 07 B0 07 FF 07 C4 07 FE 07 E8 07 FC 08 08 07 FE 08 11 08 01 08 13 07 FD 08 13 07 FE 08 0E 07 FC 08 00 07 FD 07 F1 08 06 07 DF 07 FA 08 27 07 FE 08 87 08 00 08 89 07 FB 08 7C 07 FD 08 5C 08 00 08 34 07 FB 08 18 07 FD 08 3A 08 02 08 59 07 FB 08 26 07 FE 08 1E 07 FD 08 40 07 FC 08 39 07 FD 08 07 07 FF 07 D0 07 FB 07 B7 07 FD 07 BE 07 FB 07 CC 07 FC 07 D6 07 FE 07 E1 07 FD 07 E9 07 FC 07 E7 08 03 07 BD 07 FB 07 A7 07 FD 07 FA 08 01 08 80 07 FC 08 C1 07 FD 08 C6 07 FB 08 BE 07 FC 08 C0 07 FD 08 5A 07 FB 08 3F 07 FC 08 61 08 04 08 49 07 FA 07 E5 07 FD 07 88 08 03 07 6B 07 FC 07 A5 07 FD 07 DC 07 FC 07 DC 07 FC 07 BE 07 FE 07 B2 07 FC 07 B8 07 FC 07 BF 07 FE 07 C6 07 FF 07 C1 07 FC 07 B7 07 FF 07 AE 07 FE 07 B7 07 FD 07 CC 07 FE 07 FA 08 01 08 67 07 FC 08 56 07 FF 08 3B 07 FB 08 38 07 FC 08 13 07 FF 08 13 07 FA 08 07 07 FD 07 E3 07 FE 07 A0 07 FF 07 8A 07 FC 07 8D 07 FE 07 99 07 FB 07 A7 07 FC 07 C9 07 FE 07 E9 07 FC 08 05 07 FC 08 11 07 FE 08 13 08 00 08 1A 07 FC 08 0A 07 FE 08 01 07 FB 07 FE 07 FC 08 06 08 05 08 1E 07 FB 08 6E 07 FE 08 78 07 FF 08 31 07 FB 07 FA 07 FD 07 E9 08 00 07 D7 07 FB 07 9B 07 FD 07 91 07 FE 07 91 07 FC 07 70 07 FE 07 4C 07 FD 07 64 07 FC 07 80 07 FE 07 94 07 FE 07 AD 07 FC 07 C7 07 FF 07 E6 07 FE 08 02 07 FC 08 16 07 FE 08 1D 07 FD 08 23 07 FC 08 30 07 FD 08 36 07 FE 08 31 07 FC 08 4C 07 FE 08 80 07 FD 08 86 07 FB 08 68 07 FE 08 3F 08 02 08 44 07 FC 08 8D 07 FE 08 E2 07 FB 08 D5 07 FB 08 AC 07 FD 08 6E 07 FD 08 67 07 FB 08 6A 07 FE 08 29 07 FD 07 DF 07 FD 07 AB 08 02 07 90 07 FA 07 84 07 FC 07 6E 07 FE 07 62 07 FB 07 5D 07 FC 07 5F 07 FE 07 6A 07 FB 07 78 07 FD 07 76 07 FD 07 AC 07 FB 07 FA 07 FE 08 05 08 00 08 4C 07 FC 08 90 07 FD 08 7C 08 03 08 3C 07 FB 08 3F 07 FD 08 2F 08 00 08 09 07 FB 07 C9 07 FD 07 73 07 FF 07 8C 07 FB 07 CB 07 FC 07 DA 07 FE 07 CE 07 FB 07 D3 07 FD 07 ED 07 FF 08 0F 07 FE 08 2C 07 FD 08 42 07 FE 08 4E 07 FD 08 68 07 FC 08 72 07 FF 08 71 08 00 08 A3 07 FC 08 BC 07 FE 08 BB 07 FB 08 C3 07 FD 08 90 07 FF 08 76 07 FB 08 71 07 FC 08 19 07 FD 07 DD 07 FA 07 E2 07 FC 07 A1 08 02 07 88 07 FB 07 95 07 FC 07 67 07 FD 07 4B 07 FB 07 58 07 FD 07 6F 07 FD 07 80 07 FA 07 85 07 FC 07 91 07 FD 07 9F 07 FC 07 AC 07 FD 07 AA 07 FD 07 AA 07 FC 07 D0 07 FE 07 F9 07 FC 08 0C 07 FC 08 43 07 FE 08 85 07 FC 08 73 07 FD 08 68 07 FE 08 55 07 FB 08 26 07 FE 08 44 08 04 08 57 07 FB 08 13 07 FD 07 D9 07 FE 07 B3 07 FC 07 92 07 FD 07 71 08 01 07 52 07 FA 07 58 07 FD 07 74 07 FD 07 95 07 FC 07 AD 07 FD 07 C0 08 03 07 CA 07 FA 07 DA 07 FE 07 FD 08 04 08 28 07 FB 08 1C 07 FD 08 49 07 FF 08 99 07 FC 08 A3 07 FD 08 66 07 FD 08 28 07 FC 08 5D 07 FD 08 76 08 00 08 18 07 FC 07 F6 07 FD 07 FD 07 FD 07 F6 07 FD 07 FC 07 FE 08 0E 08 01 08 21 07 FC 08 1B 07 FF 08 03 07 FE 07 F3 07 FD 07 F6 07 FE 08 01 08 01 08 0A 07 FC 08 11 07 FE 08 0C 07 FF 07 FB 07 FC 07 EA 07 FE 08 41 07 FC 08 90 07 FC 08 AC 07 FD 08 A4 08 04 08 87 07 FC 08 5A 07 FD 08 1E 07 FC 07 F1 07 FB 07 EF 07 FE 07 DE 07 FC 07 94 07 FC 07 5A 07 FE 07 44 08 01 07 2E 07 FB 07 35 07 FD 07 68 07 FD 07 9C 07 FA 07 C1 07 FD 07 D2 07 FE 07 E0 07 FD 07 ED 07 FC 07 EE 07 FE 07 ED 07 FC 07 E8 07 FC 07 DB 07 FE 08 04 07 FE 08 8A 07 FD 08 AB 07 FD 08 70 07 FB 08 5A 07 FD 08 5B 08 00 08 6B 07 FC 08 63 07 FD 08 0D 07 FC 08 0D 07 FC 08 34 07 FE 08 23 07 FB 07 C8 07 FD 07 91 07 FE 07 7D 07 FD 07 87 07 FD 07 A4 07 FE 07 BD 07 FD 07 CE 07 FC 07 E0 08 02 07 F5 07 FB 07 FC 07 FC 07 FE 08 01 07 FE 07 FA 08 09 07 FE 08 52 08 00 08 7C 07 FC 08 9B 07 FE 08 C8 07 FE 08 7B 07 FB 08 2A 07 FD 07 E3 07 FD 07 CC 07 FB 07 F5 07 FE 08 15 07 FD 07 C3 07 FC 07 76 07 FD 07 53 08 02 07 57 07 FB 07 71 07 FD 07 6A 07 FD 07 51 07 FC 07 47 07 FE 07 55 07 FB 07 81 07 FD 07 B2 07 FD 07 D9 07 FC 07 F5 07 FD 07 F6 08 01 07 E7 07 FB 08 42 07 FC 08 DB 07 FC 09 0A 07 FB 09 2D 07 FD 09 01 08 02 08 9C 07 FB 08 9B 07 FD 08 70 07 FC 08 18 07 FD 07 F8 07 FD 08 19 07 FD 07 E4 07 FD 07 69 07 FF 07 10 07 FB 07 1C 07 FD 07 6C 07 FE 07 A3 07 FB 07 B6 07 FE 07 B2 07 FC 07 B8 07 FC 07 B5 07 FE 07 BF 07 FC 07 D3 07 FC 07 DE 07 FE 07 DB 07 FB 08 05 07 FD 08 59 07 FF 08 99 07 FB 08 AF 07 FD 08 B9 07 FD 08 A6 07 FC 08 88 07 FD 08 5A 07 FC 08 23 07 FC 08 29 07 FD 08 70 07 FD 08 7F 07 FB 08 1C 07 FE 07 9D 07 FB 07 4C 07 FC 07 48 07 FD 07 6E 07 FB 07 98 07 FC 07 BA 07 FD 07 D7 07 FB 07 EA 07 FC 07 F7 07 FE 08 09 07 FC 08 1D 07 FD 08 0B 07 FE 08 00 07 FC 08 87 07 FD 09 21 07 FE 09 31 07 FD 08 B1 07 FC 08 2B 07 FF 07 E1 07 FD 08 13 07 FC 08 3F 07 FE 08 0B 07 FB 07 C4 07 FD 07 50 07 FF 06 F2 08 00 06 D5 07 FC 07 29 07 FE 07 85 07 FB 07 AE 07 FC 07 AF 07 FF 07 A9 07 FB 07 A9 07 FD 07 AA 07 FF 07 A8 07 FC 07 B1 07 FD 07 BC 07 FB 07 E7 07 FD 07 E4 07 FD 08 49 07 FF 08 4D 07 FB 08 62 07 FD 08 75 07 FD 08 4D 07 FB 07 EB 07 FD 07 B1 07 FE 07 C5 07 FB 07 F1 07 FD 08 11 07 FD 07 F0 07 FB 07 9D 07 FE 07 3E 07 FD 07 19 07 FC 07 36 07 FD 07 68 07 FD 07 B1 07 FB 07 F5 07 FD 08 27 08 01 08 50 07 FB 08 6A 07 FD 08 80 07 FB 08 81 07 FC 08 77 07 FE 08 81 07 FC 08 BC 07 FC 09 17 07 FE 09 54 08 00 09 0F 07 FD 08 B0 07 FF 08 6F 07 FF 08 6D 07 FD 08 72 07 FD 08 75 07 FC 08 6D 07 FD 07 EA 08 02 07 6D 07 FA 07 6F 07 FD 07 9F 07 FF 07 C7 07 FB 07 D5 07 FD 07 DC 07 FF 07 DE 07 FC 07 E9 07 FD 07 E7 08 02 07 EE 07 FC 07 F7 07 FD 07 FB 07 FF 07 DC 07 FB 07 F0 07 FD 08 1D 07 FD 08 44 07 FC 08 58 07 FD 08 41 07 FB 08 0F 07 FB 08 14 07 FD 08 5E 07 FB 08 9B 07 FB 08 92 07 FE 07 EA 08 01 07 5B 07 FC 07 3E 07 FD 07 5C 07 FC 07 90 07 FD 07 C6 08 00 07 ED 07 FB 07 FB 07 FD 07 FF 07 FD 07 F2 07 FA 07 E1 07 FE 07 D6 07 FE 07 CF 07 FB 07 B3 07 FD 07 A6 07 FE 07 E0 07 FB 07 E0 07 FD 07 E3 07 FE 08 05 07 FB 08 22 07 FD 08 3D 07 FE 07 EB 07 FB 07 7B 07 FD 07 68 07 FD 07 D1 07 FC 07 F5 07 FE 07 CE 07 FE 07 B1 07 FC 07 99 07 FE 07 7A 07 FC 07 64 07 FD 07 6F 07 FE 07 86 08 01 07 9C 07 FC 07 B0 07 FE 07 C3 07 FD 07 DB 07 FC 07 EA 07 FF 07 E1 07 FB 07 E6 07 FD 08 15 07 FF 08 34 07 FB 08 4C 07 FD 08 3A 07 FE 08 4E 07 FB 08 63 07 FB 08 7E 07 FC 08 91 07 FB 08 B2 07 FD 08 B5 08 00 08 6F 07 FA 08 24 07 FC 08 19 07 FC 08 13 07 FB 07 F7 07 FD 07 E4 07 FB 07 EC 07 FB 08 05 07 FD 08 10 07 FF 08 15 07 FC 08 11 07 FE 08 03 07 FC 07 F5 07 FC 07 F8 07 FE 08 3E 07 FB 08 6E 07 FD 08 86 07 FF 08 A2 07 FB 08 94 07 FD 08 7B 07 FF 08 7D 07 FC 08 B9 07 FE 08 A8 07 FF 08 49 07 FE 08 0C 07 FD 07 B4 08 00 07 71 07 FE 07 51 07 FE 07 40 07 FF 07 3E 07 FC 07 51 07 FE 07 60 08 02 07 6B 07 FB 07 76 07 FD 07 82 07 FF 07 97 07 FA 07 AC 07 FD 07 AB 08 01 07 9F 07 FA 07 B3 07 FE 08 40 07 FF 08 B8 07 FB 08 A7 07 FD 08 9D 07 FD 08 79 07 FB 08 2C 07 FC 08 12 07 FC 08 20 07 FA 08 25 07 FD 08 19 07 FB 07 D6 07 FB 07 98 07 FC 07 77 07 FC 07 66 07 FA 07 7C 07 FD 07 93 07 FE 07 A0 07 FB 07 A8 07 FD 07 B3 08 00 07 C1 07 FC 07 D2 07 FD 07 E0 08 04 07 F9 07 FB 08 1A 07 FE 08 36 07 FD 08 69 07 FC 08 90 07 FE 08 E8 07 FD 09 09 07 FD 08 AE 07 FF 08 4B 07 FE 08 15 07 FC 07 F2 08 00 07 DE 07 FD 07 F6 07 FD 07 E3 07 FE 07 C3 08 03 07 BE 07 FD 07 CB 07 FE 07 D9 07 FD 07 E0 07 FC 07 DD 07 FE 07 D8 07 FD 07 D4 07 FC 07 CF 07 FD 07 CA 08 00 07 DA 07 FC 07 EB 07 FE 07 DC 07 FB 07 E3 07 FC 08 34 07 FE 08 7A 07 FB 08 46 07 FD 07 E9 08 02 07 ED 07 FA 08 19 07 FD 08 49 07 FE 08 3E 07 FB 07 F3 07 FC 07 83 07 FD 07 29 07 FA 07 53 07 FC 07 95 07 FD 07 B4 07 FB 07 BE 07 FD 07 C9 07 FE 07 D9 07 FB 07 E5 07 FC 07 EF 08 04 08 02 07 FA 08 0B 07 FD 08 22 07 FF 08 33 07 FB 08 31 07 FD 08 3A 08 00 08 5E 07 FD 08 80 07 FD 08 90 07 FE 08 81 07 FC 08 49 07 FF 07 EF 07 FD 07 C3 07 FE 08 04 08 01 08 43 07 FB 08 69 07 FE 08 4D 08 02 08 15 07 FB 07 E3 07 FD 07 C3 08 03 07 B3 07 FC 07 C0 07 FD 07 DB 07 FC 07 F6 07 FC 08 07 07 FF 08 0C 07 FD 08 01 07 FD 07 EF 08 03 07 DE 07 FB 07 CF 07 FD 07 AF 08 04 07 D2 07 FB 08 12 07 FD 08 49 08 00 08 7E 07 FB 08 B4 07 FE 08 96 07 FD 08 3E 07 FD 08 28 07 FE 08 35 07 FD 08 40 07 FD 08 09 07 FD 07 FF 07 FB 07 DD 07 FC 07 8D 08 02 07 55 07 FB 07 44 07 FC 07 4F 08 00 07 64 07 FB 07 78 07 FD 07 92 07 FC 07 B6 07 FC 07 CD 07 FC 07 E0 07 FC 07 EC 07 FC 08 08 07 FE 08 62 07 FB 08 CB 07 FC 09 17 07 FF 08 F8 07 FB 08 83 07 FD 08 38 07 FE 08 57 07 FE 08 55 07 FD 08 14 07 FF 07 E6 07 FD 08 02 07 FC 08 0C 07 FF 07 DB 07 FB 07 88 07 FC 07 42 07 FE 07 2B 08 00 07 3F 07 FC 07 4F 07 FE 07 5F 08 00 07 6C 07 FC 07 83 07 FF 07 96 07 FB 07 9F 07 FD 07 92 07 FE 07 7B 07 FF 07 AD 07 FC 07 F8 07 FE 07 F1 07 FD 07 C2 07 FC 07 FD 07 FE 08 55 08 00 08 3A 07 FC 08 2E 07 FD 08 24 07 FF 08 38 07 FB 08 31 07 FE 07 E7 07 FD 07 B1 07 FC 07 B1 07 FE 07 E5 07 FC 08 1E 07 FC 08 40 07 FD 08 49 07 FF 08 45 07 FB 08 43 07 FE 08 42 07 FE 08 43 07 FB 08 5A 07 FD 08 5F 07 FD 08 78 07 FB 08 AB 07 FE 08 DC 07 FC 08 FD 07 FB 08 E6 07 FE 08 87 07 FC 08 32 07 FD 08 16 07 FF 08 12 07 FB 08 39 07 FD 08 36 07 FD 08 01 07 FB 07 E9 07 FD 07 DE 07 FE 07 EE 08 01 07 F8 07 FC 07 E9 07 FF 07 CE 07 FD 07 BC 07 FC 07 B5 07 FE 07 B2 07 FF 07 B1 07 FC 07 AC 07 FE 07 A1 07 FE 07 A0 07 FC 07 9C 07 FE 07 C2 07 FC 07 F0 07 FC 08 27 07 FE 08 3A 08 00 07 D4 07 FC 07 8D 07 FD 07 77 07 FF 07 72 07 FB 07 61 07 FD 07 8C 07 FC 07 F4 07 FC 08 1F 07 FD 07 F6 08 03 07 BD 07 FB 07 B2 07 FD 07 BD 07 FF 07 DA 07 F9 07 F5 07 FD 08 0C 07 FD 08 18 07 FE 08 20 07 FB 08 2E 07 FD 08 48 07 FE 08 54 07 FB 08 6B 07 FD 08 A9 07 FE 08 B8 07 FC 08 A8 07 FD 08 9B 08 02 08 AF 07 FB 08 AC 07 FE 08 5C 07 FD 07 AD 07 FC 07 AC 07 FD 08 13 07 FC 08 36 07 FC 07 E4 07 FD 07 87 07 FE 07 6A 07 FC 07 8A 07 FE 07 BA 07 FC 07 D6 07 FC 07 FC 07 FE 08 1F 07 FC 08 36 07 FC 08 3F 07 FE 08 32 08 00 08 1D 07 FC 07 F1 07 FD 07 BF 07 FC 07 F6 07 FC 08 59 07 FE 08 68 08 00 08 3D 07 FC 07 D6 07 FD 07 63 07 FF 07 52 07 FC 07 42 07 FD 07 3B 07 FE 07 58 07 FC 07 93 07 FD 07 94 07 FE 07 2D 07 FC 06 EA 07 FC 07 0A 07 FB 07 50 07 FB 07 77 07 FD 07 9F 07 FD 07 BE 07 FB 07 D2 07 FE 07 DB 07 FF 07 E2 07 FC 07 EE 07 FD 07 FF 07 FD 08 31 07 FC 08 A2 07 FE 08 E3 08 00 08 D9 07 FB 08 B1 07 FE 08 B3 08 00 08 C3 07 FB 08 B3 07 FC 08 BA 07 FE 08 A4 07 FB 08 1F 07 FC 07 DD 07 FE 08 14 07 FC 08 43 07 FD 08 28 07 FE 08 21 07 FC 08 3A 07 FD 08 4D 08 00 08 54 07 FB 08 4F 07 FD 08 4A 08 05 08 3E 07 FB 08 29 07 FE 08 00 07 FE 07 CE 07 FE 07 C7 07 FD 07 BC 08 05 07 A0 07 FB 07 A3 07 FE 07 DE 08 02 07 D4 07 FB 07 C9 07 FE 07 C2 07 FE 07 CA 07 FC 07 B7 07 FD 07 5E 08 04 07 2B 07 FB 07 41 07 FC 07 69 07 FE 07 7E 07 FB 07 84 07 FC 07 8B 07 FE 07 9A 08 01 07 AE 07 FC 07 CB 07 FE 07 E3 07 FB 07 FA 07 FC 08 17 07 FD 08 2F 07 FB 08 36 07 FC 08 35 07 FE 08 51 07 FD 08 C0 07 FB 09 2E 07 FE 09 15 08 01 08 D3 07 FC 08 C7 07 FE 08 D2 08 01 08 AD 07 FC 08 75 07 FD 08 8D 07 FC 08 7C 07 FC 07 F2 07 FE 07 95 08 02 07 73 07 FC 07 6D 07 FE 07 77 07 FC 07 80 07 FC 07 7E 07 FE 07 7E 07 FE 07 85 07 FC 07 95 07 FD 07 A6 07 FC 07 B9 07 FC 07 C9 07 FD 07 EE 07 FD 08 3E 07 FC 08 93 07 FE 08 87 08 03 08 45 07 FC 08 26 07 FE 08 4E 07 FC 08 6F 07 FC 08 2F 07 FE 07 A6 07 FC 07 4E 07 FC 07 3E 07 FD 07 5B 08 01 07 8B 07 FC 07 B4 07 FE 07 EE 07 FE 08 14 07 FD 08 31 07 FD 08 39 07 FB 08 35 07 FC 08 31 07 FE 08 2D 08 00 08 2B 07 FB 08 2B 07 FE 08 24 07 FD 08 56 07 FB 08 83 07 FC 08 54 08 01 08 56 07 FB 08 98 07 FC 08 79 07 FE 08 20 07 FC 07 D7 07 FD 07 F2 07 FD 07 DE 07 FB 07 A9 07 FB 07 82 07 FD 07 96 08 00 07 AE 07 FB 07 90 07 FE 07 7F 08 01 07 90 07 FC 07 9D 07 FD 07 AE 07 FE 07 BB 07 FB 07 C0 07 FD 07 C0 08 01 07 C1 07 FB 07 BB 07 FD 07 AF 07 FD 07 D8 07 FC 08 09 07 FD 08 55 07 FE 08 37 07 FB 08 0D 07 FD 08 15 07 FF 08 1E 07 FA 08 70 07 FE 08 84 08 01 08 6C 07 FD 08 28 07 FD 08 17 07 FD 07 F9 07 FC 07 B5 07 FE 07 8B 07 FE 07 91 07 FB 07 A8 07 FE 07 BB 07 FD 07 C2 07 FD 07 D0 07 FE 07 DF 07 FD 07 F1 07 FC 08 07 07 FF 08 21 07 FE 08 26 07 FC 08 04 07 FE 08 01 07 FC 08 44 07 FC 08 C6 07 FE 08 E1 07 FC 08 99 07 FB 08 40 07 FF 08 0E 07 FB 08 14 07 FC 08 1F 07 FE 08 57 07 FE 08 50 07 FD 07 C6 07 FE 07 7F 07 FD 07 9F 07 FC 07 CA 07 FE 07 CD 07 FB 07 BC 07 FD 07 B8 07 FE 07 BD 07 FA 07 CA 07 FD 07 DA 07 FD 07 EA 07 FC 07 FD 07 FC 08 1D 07 FF 08 22 07 FC 08 32 07 FC 08 69 07 FE 08 9C 07 FF 08 87 07 FC 08 54 07 FD 08 14 07 FC 07 F4 07 FC 08 4B 07 FE 08 85 07 FE 08 2C 07 FC 07 B2 07 FE 07 38 07 FC 07 0C 07 FC 07 1C 07 FE 07 2C 07 FB 07 40 07 FC 07 5A 07 FF 07 6C 07 FB 07 71 07 FD 07 76 07 FD 07 86 07 FB 07 99 07 FD 07 B0 07 FB 07 C4 07 FC 07 D0 07 FE 07 FD 07 FB 08 60 07 FC 08 91 07 FE 08 CF 07 FB 08 B3 07 FC 08 6A 07 FF 08 46 07 FC 08 3D 07 FC 08 36 07 FE 08 11 08 00 08 15 07 FC 08 0A 07 FE 07 ED 08 02 07 CF 07 FB 07 E2 07 FE 08 15 08 02 08 32 07 FC 08 37 07 FE 08 32 07 FC 08 29 07 FC 08 1A 07 FE 08 19 07 FC 08 24 07 FB 08 1F 07 FE 08 5A 08 01 08 9D 07 FC 08 CB 07 FE 08 D7 07 FC 08 CC 07 FC 08 85 07 FE 08 68 07 FC 08 57 07 FC 08 28 07 FF 07 FD 07 FB 07 CF 07 FB 07 97 07 FE 07 75 07 FC 07 64 07 FD 07 5C 07 FD 07 64 08 01 07 68 07 FC 07 75 07 FF 07 81 07 FC 07 8E 07 FC 07 96 07 FF 07 9A 07 FC 07 AA 07 FC 07 B6 07 FE 07 A5 07 FD 07 B3 07 FD 08 11 07 FF 08 34 07 FB 08 23 07 FC 07 E2 07 FE 07 D7 07 FC 08 35 07 FC 08 52 07 FE 08 45 07 FC 08 32 07 FD 07 EA 07 FE 07 AC 07 FB 07 E5 07 FD 07 F4 08 00 07 BC 07 FA 07 AD 07 FC 07 BE 07 FD 07 D2 07 FB 07 E6 07 FC 07 FA 07 FE 08 12 07 FB 08 18 07 FB 08 18 07 FE 08 08 07 FF 08 0E 07 FA 08 60 07 FE 08 76 07 FE 08 A9 07 FC 08 B2 07 FE 08 74 07 FC 08 39 07 FD 08 34 07 FD 08 6A 07 FC 08 4C 07 FC 08 44 07 FF 08 11 07 FC 07 C2 07 FD 07 9D 07 FF 07 8F 07 FB 07 94 07 FD 07 A1 08 00 07 B2 07 FC 07 B9 07 FD 07 C6 08 02 07 CD 07 FD 07 CA 07 FD 07 CA 08 01 07 D7 07 FB 07 FA 07 FE 08 15 07 FE 08 4C 07 FD 08 60 07 FE 08 85 07 FC 08 B5 07 FC 08 DB 07 FE 08 B1 08 00 08 4E 07 FC 08 29 07 FE 08 49 08 00 08 3C 07 FD 08 06 07 FD 07 F3 07 FB 08 11 07 FB 08 29 07 FE 08 01 07 FD 07 A9 07 FB 07 6B 07 FD 07 66 08 00 07 73 07 FB 07 7C 07 FC 07 7F 08 01 07 84 07 FC 07 8E 07 FD 07 94 07 FC 07 81 07 FB 07 9E 07 FE 08 0E 08 01 08 81 07 FC 08 97 07 FE 08 5B 07 FD 08 08 07 FB 08 03 07 FD 08 31 07 FD 08 2E 07 FB 07 E9 07 FE 07 B7 08 03 07 BD 07 FC 07 A2 07 FD 07 60 07 FD 07 49 07 FD 07 68 07 FF 07 8D 08 00 07 A4 07 FC 07 BA 07 FF 07 D0 07 FC 07 E0 07 FD 07 F3 07 FE 08 04 07 FB 08 10 07 FC 08 2F 07 FD 08 47 07 FC 08 58 07 FD 08 93 07 FF 08 9A 07 FB 08 73 07 FD 08 2F 07 FB 08 31 07 FB 08 4F 07 FE 08 89 07 FB 08 AF 07 FC 08 9A 07 FE 08 41 07 FD 07 A4 07 FC 07 5A 08 00 07 5A 07 FB 07 7E 07 FE 07 B4 07 FD 07 DC 07 FC 07 F2 07 FE 08 01 07 FF 08 1D 07 FC 08 24 07 FE 08 29 07 FE 08 29 07 FB 08 38 07 FE 08 5F 07 FC 08 A0 07 FC 08 C4 08 00 08 F1 07 FB 08 E9 07 FC 08 93 07 FE 08 40 07 FD 07 E3 07 FD 07 B6 07 FD 07 E1 07 FC 07 D9 07 FD 07 8C 07 FB 07 34 07 FC 07 0E 07 FF 07 0B 07 FC 07 04 07 FC 06 F8 07 FD 06 F2 07 FC 07 09 07 FC 07 33 07 FD 07 68 07 FE 07 91 07 FC 07 B8 07 FE 07 E8 07 FC 08 08 07 FD 08 53 07 FD 08 74 07 FB 08 52 07 FD 08 54 07 FD 08 8F 07 FC 08 98 07 FD 08 BA 08 03 09 01 07 FC 08 95 07 FE 08 2E 07 FF 07 EF 07 FD 07 BC 08 05 07 9A 07 FB 07 8C 07 FD 07 A1 07 FF 07 D2 07 FA 07 F4 07 FC 07 FE 08 04 07 F2 07 FB 07 E7 07 FD 07 DC 07 FF 07 CD 07 FA 07 BB 07 FE 07 A5 07 FD 07 A7 07 FC 07 C9 07 FE 07 F3 07 FE 07 F3 07 FC 08 3D 07 FE 08 75 08 00 08 5E 07 FD 08 32 08 00 08 66 07 FB 08 B0 07 FD 08 86 07 FF 08 38 07 FB 08 27 07 FE 08 1B 08 02 07 C7 07 FC 07 8B 07 FD 07 A2 07 FD 07 DA 07 FB 08 01 07 FE 08 17 07 FD 08 1C 07 FC 08 2A 07 FF 08 36 07 FB 08 42 07 FD 08 45 07 FE 08 3F 07 FA 08 60 07 FC 08 7B 